1.110021871729551385e-01
1.178041737657434529e-01
1.695271257188898928e-01
1.992456547944914946e-01
1.653396293222047508e-01
1.686684704590775963e-01
1.244735780972369144e-01
7.156171869568361821e-02
2.496699421906721506e-01
2.512896010762580845e-01
3.017609975016578572e-01
3.446164181184740438e-01
4.443585619824416133e-01
3.313288772115560721e-01
2.463434402531253509e-01
5.783420580226140695e-01
4.513467685318732214e-01
2.009003852457192374e-01
2.795718580378010465e-01
5.647287628960425687e-01
5.310049994751677715e-01
4.812124727876055941e-01
4.401554627258917884e-01
3.746479287406512260e-01
5.293578079154286353e-01
5.790868217196454282e-01
4.749158568482517717e-01
2.358691028461225581e-01
3.753807931456233371e-01
3.841074707777772379e-01
5.297685991354365020e-01
4.331999674783256760e-01
4.329440584343160481e-01
4.760713015235163992e-01
6.438074541835083764e-01
2.316890212663162141e-01
4.601899256247299896e-01
3.157013030345159899e-01
5.392450867770096634e-01
2.898819114712759548e-01
4.027129393443436567e-01
3.663005884501326914e-01
2.149277189657975984e-01
3.578557143823759001e-01
3.193685235405121503e-01
2.870691226199910684e-01
3.143786606881739942e-01
2.303781172104373276e-01
1.546366959319196432e-01
1.161639684284386242e-01
1.203155884652442054e-01
8.372095722356082126e-02
-1.401550059234669132e-01
-9.149489220609562101e-02
-1.388778967434564360e-01
-2.330387542592659567e-01
-2.441376092710702272e-02
-1.522348556762156968e-01
-2.063310581053232062e-01
-1.726853956387724431e-01
-1.674868206539197324e-01
-9.183389536054861746e-02
-3.520484422662774060e-01
-4.177390799337066807e-01
-4.323951167149033270e-01
-1.107150632064707596e-01
-3.778517357974979229e-01
-4.603337277449573994e-01
-3.775530372223364628e-01
-3.533173768917026725e-01
-3.526928590059876800e-01
-4.094749645954033901e-01
-4.435966176757303869e-01
-5.308652467779465534e-01
-3.836663093151670423e-01
-4.848178984767094746e-01
-3.434818674410050621e-01
-5.446857084944235483e-01
-4.749782612140533433e-01
-4.315262067062611839e-01
-4.691359868179009185e-01
-3.542767929270804750e-01
-6.214829010662822339e-01
-5.410592840117343094e-01
-5.062627893779843014e-01
-3.807483002538679107e-01
-5.445973984553430514e-01
-6.186248567737071546e-01
-4.412382723130123807e-01
-3.539573777587633474e-01
-3.988301961329129841e-01
-3.985887301025374807e-01
-5.079121107256949763e-01
-4.481322834416284762e-01
-1.806322863412643809e-01
-2.055741952355568114e-01
-1.509923185101604837e-01
-2.144727560132251576e-01
-3.203386671710725664e-02
-7.737942146206264193e-02
1.397682862001002613e-02
-1.208747952734837705e-01
3.265593530109046905e-02
5.927222157643807082e-02
-1.842448667974178056e-02
1.597161403280471237e-03
-6.888461195769673973e-02
4.745667434770780430e-02
4.875806094745639696e-02
2.963561173899265100e-01
1.131706321600069037e-01
2.244653339029479833e-01
3.328076827090882261e-01
1.348368493855651995e-01
1.409145765843540232e-01
2.644151323725298375e-01
4.260187996571807578e-01
3.572947974829763229e-01
2.418590893930106234e-01
3.547592343680844862e-01
3.719915786812594827e-01
3.917648937856776925e-01
2.451571723811338810e-01
5.469654546296272013e-01
3.953211400529983988e-01
3.444595165137263049e-01
4.871491581240935398e-01
4.364168851530153548e-01
4.956456482244283035e-01
5.019571063495458230e-01
5.961472588904037639e-01
6.106344424870633336e-01
5.497818012810276045e-01
5.408965524863285079e-01
4.796809381254449334e-01
5.547494110226156572e-01
3.282850810352033744e-01
4.883991763234932226e-01
4.676979307854463586e-01
5.068964257126445938e-01
4.969690847628106534e-01
4.545877627690865230e-01
2.626196976712961151e-01
4.248355038459692423e-01
4.636913870319100406e-01
3.212180932145592971e-01
2.004258663401053409e-01
1.289881031622243657e-01
2.318886864742493725e-01
7.425167892141323889e-02
7.259524532474787017e-02
2.114341605833053861e-01
7.692174192100466323e-02
1.374709441476730243e-01
8.118354774169923849e-02
-4.009979168003765387e-02
1.694395519745811249e-02
6.930675985284162621e-02
-2.352929007682153517e-01
-1.721643535327612717e-01
-4.831283893459468182e-01
-1.291539446047846873e-01
-1.472138231120554419e-01
-1.585297954932936848e-01
-2.488166580973940334e-01
-2.526116548770919734e-01
-2.673195363478517717e-01
-2.857336562771086719e-01
-3.965118572469662483e-01
-4.243281994812957980e-01
-3.960143597841593865e-01
-3.367092584950543976e-01
-4.269996382397137635e-01
-3.441430155040531291e-01
-3.897514081550926823e-01
-5.132393533103671857e-01
-4.023288173300986204e-01
-3.936218557371295446e-01
-6.491052190748225481e-01
-3.482785979793370235e-01
-4.069468695473331676e-01
-3.353222972547538205e-01
-5.996079049062269517e-01
-5.843592142750523299e-01
-3.683381981867765997e-01
-4.778491334748689590e-01
-4.871983973343539387e-01
-4.727139264582718159e-01
-4.372584437703481153e-01
-3.512301147213799934e-01
-6.646467200916783558e-01
-5.242598904783247749e-01
-3.874351687230319086e-01
-4.027211342798477367e-01
-5.501007016255630155e-01
-3.757276840403822038e-01
-4.663794335256393753e-01
-2.519078581072143885e-01
-2.572623938917604214e-01
-3.440187911993008441e-01
-2.779043628162285451e-01
-2.749023101994605423e-01
-5.202306741614698415e-02
-1.393016689244736261e-01
-4.136704241367562818e-02
-2.008976496778283050e-01
6.958801681540936757e-02
-8.368520669121001787e-02
5.320034832901647526e-02
-1.166600089916212113e-01
2.850421437245886230e-02
6.484158710200058073e-02
9.543910314090073288e-02
5.891163288337944448e-02
2.037251281830262106e-01
2.052668982006971843e-01
3.477494155084813743e-01
2.293919932144658225e-01
2.336418545628100307e-01
3.271484552152635894e-01
3.478126132909118984e-01
4.424638346728241300e-01
3.582199971927964022e-01
3.519946776134390554e-01
4.104755599124592647e-01
3.717785348490525443e-01
4.430393751502240129e-01
3.965211277731791606e-01
3.146100195434019531e-01
4.869285066127335138e-01
5.327978082679734051e-01
4.900783634412574918e-01
4.493567068140544296e-01
6.059716285675820213e-01
4.532694823973620890e-01
4.155039432528506715e-01
5.066783313999346783e-01
3.972928763481085035e-01
3.813412899273898593e-01
4.842566006388334676e-01
4.275518361138357371e-01
5.361520485177477813e-01
4.453882305724923829e-01
3.581495859350601885e-01
4.719292924607338957e-01
4.144257683943485260e-01
4.982126850931586359e-01
1.510076749767295390e-01
4.156782310402982739e-01
1.720819588228729158e-01
2.692160669802743378e-01
5.220791253358575412e-01
4.546994120914856774e-01
8.867766542632557480e-02
2.995686738237106628e-01
1.862558292533655346e-01
6.703067012952915182e-02
1.232307983761359582e-01
-1.241463646385068953e-01
2.602975937460644262e-03
-4.643534209380668215e-02
-2.129978130259151461e-02
2.655212934145820269e-03
-3.570273286507279209e-02
-3.877155045237305753e-02
-8.392452803314370824e-02
-2.802529229862013027e-01
-1.570856688114522226e-01
-3.159211918677077291e-01
-2.411643765244868565e-01
-3.643675862847153835e-01
-4.166209433100565573e-01
-3.191534597347298052e-01
-3.366566144508760794e-01
-4.738031956158890168e-01
-3.968472040500919396e-01
-4.193008331136945932e-01
-4.101080121946660828e-01
-3.798867645430694107e-01
-4.861058815027831104e-01
-4.751785013668565205e-01
-6.189074750510817902e-01
-5.733500860610464267e-01
-3.831299464920754350e-01
-4.051467506235176264e-01
-3.632217031750393788e-01
-4.520755139745968876e-01
-4.919532773821446714e-01
-5.208749377476105114e-01
-4.960256309984975576e-01
-3.552728137842568468e-01
-4.158539506114624085e-01
-3.597902865388708515e-01
-3.718104029718103387e-01
-3.240488309472944750e-01
-4.251446048914935272e-01
-5.208505935474126991e-01
-5.096689955768509694e-01
-2.742133808616035728e-01
-4.681813103391759268e-01
-2.585997949913526051e-01
-2.663811845401767853e-01
-2.764964745779862065e-01
-2.563105680824316890e-01
-1.647693291160736706e-01
-2.658392684429434216e-01
-1.821498287831916918e-01
-2.185245929095334383e-01
-2.523877941438262829e-01
-1.158481865275402117e-01
-8.710967716725369347e-02
-1.317293980602874115e-01
-2.588795417468059412e-01
3.321851802688487870e-02
4.145938025128798748e-02
5.993302700222158386e-02
4.791150496737475034e-02
-1.700982761853067626e-02
2.263754143206045955e-01
3.871236000416897749e-01
2.471922658819288854e-01
2.124244970770240437e-01
3.102761080236584035e-01
3.904050865901083633e-01
1.848002675590176003e-01
2.659170250282799075e-01
4.348261420229316832e-01
3.807682286122776594e-01
3.838680514472258554e-01
4.237243194064819751e-01
4.904913971876586065e-01
5.058337512277040204e-01
3.780425097717270977e-01
4.010543287619469099e-01
5.001745226012377366e-01
3.860472574306372806e-01
4.055636874997007313e-01
5.459416248018938989e-01
6.204585241369711124e-01
5.884625829678525877e-01
6.562263398260147484e-01
5.217337853060024511e-01
4.147187298947802025e-01
2.658207091226874041e-01
4.396424072100902358e-01
5.187685277897982061e-01
2.458155516553578446e-01
4.214979116832211492e-01
2.056725844089583588e-01
5.062836088018279890e-01
4.169367029003426817e-01
4.942477018124210031e-01
3.515502294359554303e-01
4.048781924033226232e-01
2.646790992562990108e-01
3.424893743906326504e-01
2.880051050459190298e-01
3.133362637146131502e-01
2.375813049226893625e-01
5.661619399243948692e-02
3.559178493903886187e-02
-3.156450726845336230e-02
8.500564737751151179e-02
5.612991056284030722e-04
5.531757807114717762e-02
-8.522609011503431975e-02
-2.363567056822826473e-01
6.404825953586423815e-02
-1.654194411731148284e-01
-1.820827804210516931e-01
-1.982757315993045055e-01
-3.241341571930332899e-01
-1.372777147602728398e-01
-3.910835627596926378e-01
-2.276021164015163412e-01
-2.862345661953933362e-01
-3.446366246535664812e-01
-3.710874771103029879e-01
-2.285840761626790341e-01
-3.105239284703950053e-01
-4.765098060409836966e-01
-4.179774101053533308e-01
-6.226365650334452218e-01
-4.606719822221018168e-01
-5.054606518732276399e-01
-4.529106450764765479e-01
-5.524895488656906828e-01
-3.799035383694261969e-01
-5.655730180079266978e-01
-6.366109974487368373e-01
-4.801338930821012485e-01
-3.764064839060743961e-01
-2.873494946259464999e-01
-5.039983334080724298e-01
-7.332549834745291095e-01
-5.885686909140733780e-01
-5.062286636925347194e-01
-5.989594052911676458e-01
-2.616945350233166878e-01
-5.123249312182190929e-01
-3.162364091603755978e-01
-2.871168063397301906e-01
-4.719680267888082259e-01
-3.356453643474019422e-01
-2.835948165181618741e-01
-3.522785516989770938e-01
-1.690786316056667182e-01
-8.393854824209567855e-02
-3.445733189478714653e-01
-2.689840586273529177e-01
-2.413810709130731758e-01
-6.280753097837472876e-02
7.895711131913615843e-02
-8.664276204656938540e-02
8.734956722792411310e-02
-1.069710117627035995e-01
8.466208788457216250e-02
7.981052102254963809e-02
5.070788355869540465e-02
2.702930656065549164e-01
1.579037221685621883e-01
2.493317082678795094e-01
1.606330944554249796e-01
1.552175779248889387e-01
1.645619820219438034e-01
4.001711272097565608e-01
2.057219052851107510e-01
1.610052633734899152e-01
2.500203771307670242e-01
4.212024958171066702e-01
4.046172882778314439e-01
3.581561299547066923e-01
3.782112176148131888e-01
2.302271571530334904e-01
3.575752693486540790e-01
5.423165636674713852e-01
4.601705015141214217e-01
5.256683935465539248e-01
3.932957803696314203e-01
4.115964848783839614e-01
5.139985106815484484e-01
5.706663635145260427e-01
5.069906499852047110e-01
5.183173125803878234e-01
6.088738385502024952e-01
4.238482908531503446e-01
4.916089693406887062e-01
5.013765257766853445e-01
3.955102971123736211e-01
5.722854310864310401e-01
4.104263148442943154e-01
2.452385370244840879e-01
3.113019006762098861e-01
3.651001204035159708e-01
5.063492741070947378e-01
3.949036761642227278e-01
2.451725216557443243e-01
3.801900659845503516e-01
2.041295024764307464e-01
1.533660369511887223e-01
3.055807382987819620e-01
3.619017781581926885e-01
1.598416191738368242e-01
2.128528993035282424e-01
-1.719655600991687461e-03
1.088250925615936726e-01
-1.679696102996794116e-01
1.672742317131076240e-02
-1.251696592261175023e-01
-1.987419895079714227e-01
-7.057521126656153554e-02
-3.600544053565355590e-02
-6.585931625643262621e-02
-6.388843324360923837e-02
-1.091924627865633879e-01
-2.894842704994330385e-01
-3.629021620894093969e-01
-2.417413371553668033e-01
-2.112009206690639018e-01
-3.482975668844811024e-01
-5.070291038725233124e-01
-4.131758548146632348e-01
-3.576005492432126065e-01
-3.435069677645904984e-01
-4.165739977122527860e-01
-2.829663916610283270e-01
-3.888006060129179930e-01
-4.207008281927859805e-01
-4.921843034985748933e-01
-3.593011752648421764e-01
-3.670615492761226117e-01
-3.301030887761575161e-01
-3.339408912273141294e-01
-4.452223244128497015e-01
-6.864913936550163243e-01
-3.629566720755374454e-01
-4.578544758781161739e-01
-5.156638688776714607e-01
-4.310944781786699154e-01
-2.947010454081320230e-01
-4.444381368504227159e-01
-3.467877535146959289e-01
-5.420679051524024405e-01
-4.500172278994150621e-01
-3.342074337701447240e-01
-4.758957910919597301e-01
-3.657375830281955897e-01
-3.924584102063496394e-01
-3.262170772592268841e-01
-3.186548440506372093e-01
-4.227022474720009693e-01
-1.922982366763480999e-01
-2.238702966947346551e-01
-4.162555733030366967e-01
-2.752768239176702769e-01
-1.174428067535998182e-01
3.682925909397175013e-02
-1.715856941707790406e-01
-1.181417140152846712e-01
-4.732064460535030659e-02
-2.785210845701328181e-03
-1.032345158707688448e-01
-3.629206942563724392e-02
-1.088739498328812616e-01
2.928230037282886222e-01
2.510555572605673857e-01
1.145106680982351244e-01
4.857237242908454822e-02
2.673795818335013563e-01
3.407877031049300065e-01
2.734963243984518400e-01
3.205075407236336327e-01
1.745419195785120892e-01
2.330620453468631448e-01
3.061808165313247843e-01
4.228291367367464360e-01
4.163988294748572905e-01
4.276656174473856264e-01
3.674781583989656930e-01
5.212763118968876119e-01
5.884678438102981524e-01
2.476194093923223816e-01
4.958631833830546842e-01
4.884757057124637925e-01
4.743120021483172577e-01
3.068980964707337389e-01
4.854450736025878177e-01
3.911630061608788456e-01
4.373560472867487059e-01
4.952810946712573048e-01
5.387909392251988283e-01
5.400313037549651085e-01
4.398600976988913946e-01
3.396540209869933213e-01
4.456426241760884643e-01
4.232322197598240576e-01
4.096158684942481365e-01
3.924603846083046244e-01
4.618417434043726733e-01
2.964015303875242036e-01
2.744962307788756384e-01
5.130090296784310944e-01
3.071247197739560564e-01
3.512752625692129316e-01
2.421284561884883557e-01
3.445871207691202365e-01
2.986282077824077841e-01
1.140501220169589242e-01
3.828718608353422204e-02
1.126783707951930780e-01
7.497455844742664799e-02
7.906240114974263933e-02
-1.726920377540112558e-02
-1.435785691820187504e-01
-1.749783423300917684e-01
1.887180340391987343e-01
-7.943374205831042756e-02
-1.540218356245098841e-01
-1.375219641130647485e-01
-2.273031452877553593e-01
-4.896663175245348221e-01
-2.516407424896220935e-01
-3.087476168540415067e-01
-2.626509366589169781e-01
-3.766716600755230515e-01
-5.136922949674184169e-01
-4.842005892888101570e-01
-2.708694278434164993e-01
-3.360508621722415601e-01
-4.123637650698125379e-01
-3.789877142787608788e-01
-4.487636537861656727e-01
-3.615221687690080010e-01
-5.395886870130204294e-01
-5.869799011178382653e-01
-6.616190983869348896e-01
-5.778538480875196059e-01
-6.027298568305637927e-01
-4.704884004866801694e-01
-3.689221537073563151e-01
-5.081035700991068937e-01
-5.305468813364445646e-01
-2.277400961919255895e-01
-5.793139081902860532e-01
-4.643743487540104575e-01
-5.557230527911355411e-01
-4.954975165772980139e-01
-3.905265376966644553e-01
-4.859309226297099382e-01
-4.514253936302040637e-01
-2.819711474679167384e-01
-4.361453977125849257e-01
-3.599833104024802721e-01
-2.575033821380729449e-01
-2.987858255911409744e-01
-3.985100968597075632e-01
-1.386941115630298538e-01
-1.895429811193632963e-01
-1.836373713922030970e-01
-1.751694567793695978e-01
-1.711782300381091970e-01
-2.161213089894670758e-01
-4.124828732188473568e-03
4.804420866481233510e-02
-1.056993698403937698e-01
9.611350628964854259e-02
2.257721345717898509e-01
6.226928988207364873e-02
1.335199557891665612e-01
1.172350892591683402e-01
9.912809992451798724e-02
2.359395083093686063e-01
2.283760249549751098e-01
3.454105077653195632e-01
2.465459458290615857e-01
3.491482883444758656e-01
2.645969980344082262e-01
3.150174841675356663e-01
2.242654360141989323e-01
2.595102055011911379e-01
4.857456657059868732e-01
3.081883990069829160e-01
5.229250023121144730e-01
4.456221132887558389e-01
4.575538858730547886e-01
4.836873426706154722e-01
3.500779699396330269e-01
3.547843782170536087e-01
4.291998695667557651e-01
4.102594089982523062e-01
4.740165055095041380e-01
4.197119964698255434e-01
5.178375701681035004e-01
4.638952632805768972e-01
6.297713895583157973e-01
4.472179918538611298e-01
4.416836334457249769e-01
4.345808007503365600e-01
4.385829733516679041e-01
4.695697613036208251e-01
5.753108456480406918e-01
4.772726707701707149e-01
5.015817047231414527e-01
3.585384694973211550e-01
2.537610468285921295e-01
3.327419017687934244e-01
2.725291780764099725e-01
2.636792766047284520e-01
2.474000954457985790e-01
4.228876946927627167e-01
3.977484418187987592e-01
2.015124386331504092e-01
9.586185802279423296e-02
2.002833663291506139e-01
7.852530432588482323e-02
-3.261898279486465102e-02
1.828484475490361749e-01
-4.713767885006815705e-02
-1.553582884627413563e-01
-5.255779792040005116e-02
-1.419518542425637075e-01
-1.715553672974615140e-01
-1.308908667419212135e-01
-5.451597077983891260e-02
-2.597215188938949981e-01
-8.343729323894183425e-02
-1.388200874094822068e-01
-4.378018370365949208e-01
-4.650985811654252400e-01
-2.723004092304796009e-01
-3.455645319052629283e-01
-4.114037428163554999e-01
-4.157192255244868684e-01
-4.454479313590741230e-01
-4.849274021711694749e-01
-4.025591526301204315e-01
-3.712200819960727038e-01
-3.485274581053794951e-01
-5.598861679318209994e-01
-6.618146786988710062e-01
-5.908830323285737540e-01
-5.262480526560547878e-01
-4.281873556429768302e-01
-3.342355702700749998e-01
-6.734955210699555828e-01
-4.891061393091401532e-01
-4.981869139085733922e-01
-4.149544778437206372e-01
-4.360814201596113771e-01
-5.403641949897788344e-01
-6.234487430879872560e-01
-3.787834365779381152e-01
-3.912262090040491413e-01
-3.269462919376682764e-01
-3.720782650491992194e-01
-3.645437243048024745e-01
-2.609560602494169768e-01
-3.215199961404237028e-01
-2.682644901286354022e-01
-1.784830254129373128e-01
-1.758662752992304346e-01
-2.810484956584065053e-01
-1.361287913894141943e-01
-3.603349121051154791e-01
-3.541273354491653036e-01
-6.845679345146214734e-02
-2.316075911841707913e-01
-1.621574071934881178e-01
1.505373776155918830e-01
3.162569185680839112e-01
-1.017817467079181470e-01
1.271357254039104934e-01
6.429497174782553004e-02
5.959384762553411596e-02
6.071734148719609703e-02
1.892488474804988330e-01
2.676802406711950022e-01
3.379062677879131060e-01
1.617881790616193527e-01
3.553560602376775179e-01
2.071036826703955835e-01
2.873944740102827855e-01
4.875929193045475118e-01
5.864731992489709000e-01
2.834074524921268434e-01
4.655076637462735034e-01
3.980047941419332380e-01
4.534016881883354277e-01
5.054589065108574530e-01
4.088746816899993530e-01
4.927938219331743364e-01
4.238874808825555673e-01
7.834782520588603472e-01
5.466499028248810177e-01
4.878141435705661833e-01
4.743455890070128467e-01
5.187341475364958265e-01
4.989178189268561048e-01
6.149546823816183228e-01
5.341239327335319809e-01
5.789160142291067679e-01
5.367423314053770822e-01
4.044882098248894775e-01
3.900191067570440984e-01
4.969338973932535541e-01
4.681734004636987079e-01
4.276815714095942855e-01
1.626759547647872450e-01
5.611705914732088019e-01
3.031486552235460596e-01
3.130858658862429311e-01
3.529389006187030331e-01
2.041012393618411025e-01
3.473044753871299406e-01
2.603712195562684628e-01
1.172011144825314266e-01
2.031738304001955431e-01
1.117425136253490658e-01
2.059233486450861017e-01
-2.262107055475453404e-02
-6.306282362738908909e-02
-1.210809512753636685e-01
-6.896580880008873482e-02
-1.016551363959932452e-01
-1.782818281333550248e-01
2.474470643281637128e-02
-2.537561687863044702e-01
-1.866975808256141345e-01
-2.811559490471380873e-01
-9.928569906772408138e-02
-3.386570296968703930e-01
-2.968516991409270167e-02
-2.834974049183983658e-01
-4.252031742426136685e-01
-4.238286771366949757e-01
-4.375647098866913276e-01
-4.765386787501056376e-01
-4.170946000660488706e-01
-4.481141336657131768e-01
-6.253860281207010985e-01
-4.267828691042870881e-01
-4.856168043750798136e-01
-5.804563553706999501e-01
-5.232946615815931013e-01
-4.077018051460299386e-01
-6.201829784441524884e-01
-6.430853198780533964e-01
-4.142088802133771508e-01
-4.289071650566560479e-01
-5.342088695254754160e-01
-5.882775515273406253e-01
-5.822246398207567841e-01
-5.181810753508456768e-01
-2.251941774176542399e-01
-5.055087117308323386e-01
-4.766552184216457100e-01
-4.816292126321661815e-01
-2.716042352647038971e-01
-4.919874539611938102e-01
-6.084580540442263707e-01
-3.362341805985029630e-01
-3.894279064389086220e-01
-2.170986883828835701e-01
-3.344386568235237500e-01
-2.031628358577687865e-01
-1.567177440356656848e-01
-1.929320355793037733e-02
-3.016060407705289936e-01
-1.306995348804031454e-01
-2.965885246086685800e-01
-1.002463625897790783e-01
-1.723023356825348629e-01
-1.765674370276009153e-01
1.293941201074582936e-01
6.043093828115674027e-02
9.756312520808543831e-02
2.984531960210637935e-01
2.871120388016017433e-01
1.218499498629039002e-01
1.521421475277439095e-01
3.225057838388813991e-01
2.410601630497043735e-01
1.533658177469961748e-01
2.225155655506680374e-01
4.645279398143167260e-01
3.319207365582091951e-01
5.395617739611063834e-01
3.941687297418254854e-01
4.375464790448130303e-01
4.949321401194924364e-01
1.820472948727469564e-01
3.103653561566837027e-01
6.632565977855284789e-01
3.023709503699357204e-01
4.868582051090162843e-01
5.903631853176334321e-01
3.721342100809977849e-01
4.190520188114250644e-01
3.784524147341591926e-01
6.133151937007856880e-01
5.604319531152248679e-01
5.637632572586692703e-01
4.660800137645182417e-01
5.514681964327433628e-01
4.991560719827979331e-01
4.265012234613526632e-01
3.389542036944337977e-01
5.221025175532002516e-01
5.845505326545439306e-01
3.516485946070853075e-01
4.812533292619708969e-01
2.892613266876656875e-01
1.756654694198457600e-01
3.882027307360907398e-01
2.858484307131733959e-01
2.091262888449311186e-01
2.319812580899384413e-01
1.936238742897909149e-01
1.500474467191414696e-01
1.342532275022960131e-01
1.407957618949723932e-01
1.642461683888726542e-01
2.048476955223029750e-01
1.248179032893033669e-01
-2.794897368374996832e-02
1.695252460092570301e-01
1.574039671945096086e-03
-1.315120975846194584e-01
9.860897251668306052e-02
-2.090532430373904793e-01
-3.079761798723780197e-01
-4.868680782650380845e-02
-3.235096789547290408e-01
-1.913963404513986111e-01
-2.622297583626546080e-01
-1.780775039093702994e-01
-2.751366980356965697e-01
-1.925037279929523726e-01
-3.536734130175992474e-01
-4.564587877881055578e-01
-2.236636360459830497e-01
-4.762737333618391466e-01
-3.683987539417906132e-01
-6.104823229034483933e-01
-5.162505476917249592e-01
-3.195653798752517982e-01
-3.946424564956163561e-01
-5.659337722566426532e-01
-5.648549297207146047e-01
-5.193337767850934039e-01
-5.103131504983831057e-01
-5.533703606032243094e-01
-4.628358578473650287e-01
-4.579509972066612145e-01
-3.929400585374315247e-01
-4.947585165803942142e-01
-3.983498178197141248e-01
-4.944030381552664277e-01
-6.281182014464959940e-01
-4.163533683402965146e-01
-4.183324608090340790e-01
-3.395388294486220149e-01
-3.430578219425202691e-01
-4.032618543660765331e-01
-2.922515670222145534e-01
-2.913841051570829066e-01
-1.921651133791995314e-01
-3.355232256040663330e-01
-3.400618831718417168e-01
-2.520147151945892339e-01
-1.494743576407766561e-01
-1.910780363136070359e-01
-3.442951545905248434e-01
-8.009889673122015663e-02
-2.381186944393767768e-01
-1.697629297029936701e-01
-3.427422748301157951e-02
1.199760083061749555e-02
1.584063695089626411e-01
1.650242617446915083e-01
-9.225875446032660854e-02
1.803954348522592288e-01
-5.360269759349614582e-02
6.190457637828855608e-02
2.636607892913448992e-01
2.536592347208879716e-01
9.905898262050280567e-02
2.450238157572566244e-01
2.749462856475707317e-01
5.347421802328902185e-01
3.265343611050905426e-01
4.399307409305268646e-01
5.067606343916912781e-01
2.609080590366483765e-01
4.269568725879350768e-01
2.267616282391726190e-01
5.143136575552395007e-01
4.929302577044448186e-01
4.801445842405320796e-01
5.240160520016332590e-01
3.932320565737517093e-01
4.555846448890792377e-01
4.027070901364949163e-01
2.515190649273188472e-01
4.775607930499407017e-01
3.940034134189681070e-01
5.750256797144568388e-01
3.423151811626829466e-01
6.608778764340550449e-01
4.557799141256497766e-01
5.231716167425602970e-01
5.069975802750148475e-01
4.605215062989515551e-01
4.763530506496668204e-01
4.366452531504826928e-01
3.238719394687906705e-01
2.986063529952933115e-01
1.741646357297401138e-01
5.345328117921047673e-01
2.471112107337842256e-01
2.975381773790927165e-01
2.118057462551065084e-01
2.724848862682930362e-01
2.960356021232308787e-01
1.076255529532274824e-01
3.568887498944152414e-02
6.769925718568522988e-02
9.480583568244099757e-02
3.001273475573869309e-02
-1.063800480863890674e-01
-1.008336987404881008e-01
6.186050783630138439e-03
-7.561838555562994113e-02
-1.179684364321240408e-01
-2.760697439729750680e-02
-6.318270249434544683e-02
-2.127981102339178698e-01
-6.918190659450423885e-02
-1.939349697518523152e-01
-2.334127467733679850e-01
-2.644616604564645201e-01
-3.909325280558098026e-01
-5.304517602047695846e-01
-3.691333803334113095e-01
-3.215856406302542436e-01
-3.535341660444354384e-01
-4.245286581817286908e-01
-4.705346278752303157e-01
-4.581445263197980178e-01
-3.197905831973747448e-01
-7.376105027103558864e-01
-3.934262466393255719e-01
-5.446401870763217801e-01
-4.849598438260446787e-01
-5.728958466970291985e-01
-4.720126716538740053e-01
-5.749231512592796189e-01
-5.344291192985316519e-01
-7.235919691291798905e-01
-5.811864243112276895e-01
-7.374264535594923231e-01
-7.385582798070915445e-01
-5.031652872761903650e-01
-3.689959394618413380e-01
-4.017703146627110700e-01
-3.983964349599167232e-01
-4.064980689309384831e-01
-3.805413286795467642e-01
-1.448353667599487082e-01
-3.283640573466127810e-01
-3.503853293884062747e-01
-3.130596131464228327e-01
-2.446482161316779202e-01
-2.568786740538660518e-01
-1.332058959898578254e-01
-2.066362687596305647e-01
-1.362158332429252716e-01
-1.680021853958163780e-01
-7.227964399400881035e-02
-1.409273725671028044e-01
-4.108389341222333513e-02
-9.937403528423122134e-02
3.271665581368738557e-02
7.362786498614816433e-02
2.053241584646420259e-02
-2.790133068436030650e-02
6.335490272223151531e-02
1.465294577562707978e-01
4.857553889352709264e-01
2.296895385991012950e-01
2.205343478931158230e-01
4.248607361795068704e-01
4.094384550385961052e-01
3.921084856552172759e-01
4.277826840002447728e-01
4.056430293300708478e-01
2.119459070319721916e-01
2.571647724155858294e-01
3.753717278265376045e-01
4.903493705901976751e-01
4.221689713765423013e-01
5.825071553883828246e-01
6.134306317750479742e-01
5.185053299253201686e-01
4.214041255568989897e-01
7.720307286682441816e-01
7.393058630072202320e-01
6.234424956158248765e-01
7.017985164677789101e-01
4.794146217113682829e-01
5.796598692278250864e-01
5.510178928747488936e-01
4.561516769727619325e-01
4.497514652995266982e-01
3.881882636783903773e-01
2.371257531643827798e-01
4.646550493027379880e-01
3.479158813560715990e-01
5.040709038113035945e-01
3.532076414881231696e-01
2.511903110660597127e-01
2.452182894543837310e-01
2.728927260626652918e-01
2.314308584882968090e-01
2.889730810135570094e-01
1.923929443682856344e-01
2.630165334495366825e-01
9.200430715136700965e-02
2.545200168359228465e-01
9.737848207766280906e-02
-2.471075094543655204e-02
-4.351568916971280954e-02
-1.378577784761472053e-02
-7.796653859972563216e-02
-2.033234567094487077e-01
-2.929757440554596748e-01
-1.964801907152805005e-01
-2.200219865871341218e-01
1.615211316438143474e-01
-6.278567983796530527e-02
-3.577722607517960784e-01
-2.612536781850739454e-01
-3.140785453765800872e-01
-4.363402937278646476e-01
-2.531852111263158678e-01
-4.137961193979373675e-01
-3.865169637514778156e-01
-4.195334291928848325e-01
-5.284875307188725557e-01
-5.453217083746256799e-01
-4.257147973901547755e-01
-4.857500973495757490e-01
-2.782189888231154651e-01
-4.658612797395294547e-01
-4.556302022540539287e-01
-4.766427125809151732e-01
-3.025296056420959667e-01
-5.007108919430375282e-01
-4.908823953344599311e-01
-5.549373133312598405e-01
-4.936577912810887758e-01
-3.731685903223726508e-01
-3.744531938948404970e-01
-4.035182918113398576e-01
-4.872640866395772097e-01
-5.866746534476816599e-01
-4.995620848514579770e-01
-4.233993453242312910e-01
-4.229659751742864682e-01
-4.147870773162599112e-01
-5.383385619182345927e-01
-4.332842407564263532e-01
-3.230893117239824752e-01
-3.183457985611936603e-01
-2.051717247236368169e-01
-4.406407129027041236e-01
-3.283163961085776017e-01
-2.759120325552866793e-01
-6.789432606741244158e-02
-2.572305245636544724e-01
-2.465208163730189805e-02
-1.332732967522049505e-01
-2.872265966666125991e-01
3.640570501234767498e-02
1.737721874278000400e-02
-4.488774883997606602e-02
7.663860034198259619e-02
1.207321009015379365e-01
6.321845755519772680e-02
2.947864030328609108e-01
1.301544265963775204e-01
2.780940363251656056e-01
1.403401493436960690e-01
2.361139039009813867e-01
1.494907780085945048e-01
3.178121019553810656e-01
2.966840239738392504e-01
5.101951494431857803e-01
1.134845014025657184e-01
4.557601640543826327e-01
2.887725609512079572e-01
2.119257705531271130e-01
4.544687723715792882e-01
6.404335345686302805e-01
5.707037130915775247e-01
4.707020846990709328e-01
4.174908172424650066e-01
5.814042218836463771e-01
5.178396086202738946e-01
4.996123076701743382e-01
6.160993720659364570e-01
4.422470653681831454e-01
4.762194818388534312e-01
3.879958759669174251e-01
6.957995740058742218e-01
4.137252428799804704e-01
5.251962785032386893e-01
5.883943742410505662e-01
5.510660575185528653e-01
5.587604317269123655e-01
3.630598701196688927e-01
5.337537327652999153e-01
4.539741279133439611e-01
3.209118463475228444e-01
4.847867515385400061e-01
4.606748016618211761e-01
2.695588398366076666e-01
3.906989313930935848e-01
2.489775627647847767e-01
2.949251924352941368e-03
4.401800521274590317e-02
4.005599450352711477e-01
1.821076603521111781e-01
2.009043013601601591e-01
1.244493997205745606e-01
1.509744396059693183e-01
7.896569421931835808e-03
1.542380630989153012e-01
-1.518010326034149871e-01
8.073619779998489343e-02
1.792042383928840743e-03
-1.370571363619101923e-01
-2.288669248231420816e-01
-2.456911310606124110e-01
-1.715841067402679443e-01
-3.507010503108536348e-01
-2.045574370488616456e-01
-3.426407218853712022e-01
-3.573387232426863958e-01
-4.491727665610253939e-01
-2.407918708083048864e-01
-3.081496131142305028e-01
-3.299388806668328566e-01
-2.878133003809607571e-01
-2.352287303716136257e-01
-4.463716915962658294e-01
-3.184816126247779211e-01
-4.479248122319263725e-01
-4.487218678922093584e-01
-2.678041226618508297e-01
-5.118489944963545701e-01
-2.965993639476054433e-01
-4.011542524199860904e-01
-4.535469602384134546e-01
-2.822407933257123913e-01
-3.764741066380075663e-01
-3.410032651857143327e-01
-6.420011816048083464e-01
-4.863323508643538906e-01
-4.933251165461393639e-01
-3.499451065679385908e-01
-3.629529670704039757e-01
-5.147435872546293201e-01
-4.075818428744917843e-01
-4.304986752721736143e-01
-4.705760683507365094e-01
-3.768385105209457464e-01
-1.547284841770934505e-01
-3.541274413184621328e-01
-4.896391830118344002e-01
-2.924173981346321338e-01
-2.792601590103848119e-01
-2.272570321203783439e-01
-1.208479322037326747e-01
-1.780427778855472876e-01
-3.019136682842076813e-01
3.647325895671429952e-02
-9.289583765043696317e-02
-4.993213385828164375e-02
-1.651737836162646966e-01
-2.128432896455175610e-02
5.891515997943849031e-02
1.206669077963971604e-01
7.938136631881630156e-02
2.294492049384166676e-01
4.961643668222981418e-02
2.992641880957901956e-01
4.055688802438481844e-01
2.985967368001834488e-01
3.859544605778852389e-01
3.621520377591020967e-01
3.490251259127732375e-01
4.801113172540850682e-01
4.195177669553151745e-01
2.868117357642496756e-01
4.170519057261784512e-01
3.058680885677111938e-01
4.705534611129668088e-01
5.158701165114349951e-01
4.473252526179564148e-01
4.175082760099154688e-01
4.670329346410560523e-01
4.703667050402092209e-01
6.027355048923219716e-01
6.213171209104235704e-01
4.636884344789036771e-01
5.323714833849502170e-01
5.550225925821204997e-01
5.747980369794338795e-01
4.686821233240293649e-01
3.712870782344610543e-01
4.095250065629955083e-01
5.615652207697804377e-01
4.703418617389106271e-01
3.047062749800590331e-01
3.200178169996285016e-01
2.970737288768600104e-01
3.799804774111907313e-01
2.844420516650744135e-01
4.292996807116877256e-01
3.773367014418357868e-01
2.533754499577539621e-01
2.163753933095146909e-01
3.087743359446236679e-01
1.798146941180865932e-01
4.230179598180305867e-02
1.436352092977200012e-02
1.581765417593923306e-01
1.054846121532367620e-01
1.682390217171684244e-01
2.022237329886809043e-01
-8.664857270042113091e-02
4.032334223887572983e-02
-3.622535814208357324e-02
2.816170539745277424e-02
-1.288261956016276133e-01
-2.530642514974006108e-02
-1.125903482528189392e-01
-1.995992737416381890e-01
-3.603904550079748415e-01
-2.964040686767847599e-01
-2.590432049522956026e-01
-4.083456513411091726e-01
-4.391462500966912819e-01
-3.737821025214317361e-01
-3.728376065240427417e-01
-6.735964589746510356e-01
-3.164780059674563994e-01
-5.098048621806612335e-01
-5.381624907892439413e-01
-5.339621753077469224e-01
-4.740546081370178855e-01
-2.463953239862678446e-01
-3.884388819693889161e-01
-4.583535404475576058e-01
-5.461475318752224695e-01
-1.916378092956512180e-01
-4.124946739865747447e-01
-3.311737234842497823e-01
-5.191271567735664672e-01
-5.685446886764620178e-01
-2.917154405853884525e-01
-6.187912749589965511e-01
-2.882898980220761631e-01
-3.088810268461082975e-01
-4.590760491244592623e-01
-3.168545049098879240e-01
-4.449799115971632690e-01
-3.070268865984188134e-01
-5.288567431323635271e-01
-5.351031959164794793e-01
-1.527998646173897856e-01
-2.078820774990124964e-01
-2.450904387014126995e-01
-3.507635790266934173e-01
-2.271752208183672739e-01
-2.289811443244569034e-01
-2.874363827512648739e-01
-1.801769707729023451e-01
-1.249596641114957413e-01
-2.946282729074890527e-01
-8.753245032257651881e-02
-1.258360580981884858e-01
-2.449215223107007455e-01
3.641380342404647308e-02
-1.235517197732464850e-01
1.089825659472673791e-01
1.274809622214662097e-01
1.183120782209683558e-01
6.116791793223491647e-02
1.845010753504551237e-01
2.547969600897084796e-01
4.116250931037824801e-01
4.672650170190652541e-01
2.313758906015656869e-01
1.532046086199305712e-01
1.719645861956032584e-01
3.452167177959396538e-01
4.120972725121342939e-01
3.002244563117748566e-01
3.836260669081192898e-01
5.178829360426611128e-01
6.182349962683468814e-01
3.657369288745136449e-01
4.775549037032416622e-01
4.306697753242057503e-01
5.497764883204604436e-01
5.473451956727397594e-01
3.957590324190641828e-01
4.298097532752654382e-01
4.090510538315863531e-01
4.527390180658630303e-01
4.613909604532473452e-01
5.769800281037436029e-01
4.739186410273785177e-01
5.109784344031715886e-01
3.892995636325223829e-01
3.536486118087186492e-01
4.962298500809405599e-01
4.802785335311287596e-01
3.271503039140258862e-01
2.312767769655186267e-01
4.253725977593571517e-01
3.051722522069595378e-01
3.161577361632111338e-01
3.567335485404000694e-01
2.952884726427775774e-01
2.766438137987110579e-01
2.517808614721678273e-01
1.988342723612228080e-01
2.258681046011759841e-01
3.186495714922742417e-01
6.344251436157991031e-02
-3.308926827829725137e-03
1.083437672475577596e-01
2.262250910390847802e-01
-2.208686568963674421e-02
-1.765207111145323804e-01
2.022481160874316231e-02
-5.471950959614374499e-02
-1.246888433999973345e-01
-2.523939241029066749e-01
-1.342171777885297068e-01
-2.160809596531977350e-01
-9.584015889292457624e-02
-1.536697605313463999e-01
-3.743920791394010905e-01
-4.154029282724209238e-01
-4.569427046229509459e-01
-5.939796107798416269e-01
-3.134175601838897762e-01
-2.859035383369002981e-01
-3.405275514383537816e-01
-3.367713368095864856e-01
-4.410253197434924610e-01
-5.456423000339181151e-01
-4.863037638932329321e-01
-3.163588397880559011e-01
-5.432887249800029128e-01
-6.037966781611043832e-01
-5.424730978918310687e-01
-3.950510484195079997e-01
-4.238844268482331867e-01
-3.380293530474423047e-01
-4.937803059935179095e-01
-4.493271552627192689e-01
-5.621823785033521759e-01
-4.432920818215696501e-01
-4.126259448709101441e-01
-4.450653739707883250e-01
-3.459314715928281103e-01
-3.480456505927848609e-01
-1.545016319870653465e-01
-3.242333857781459217e-01
-2.803869476622399270e-01
-4.335296885812465750e-01
-4.056878229045827733e-01
-3.479389327822144939e-01
-3.579019710110515340e-01
-2.234246627825189901e-01
-2.291852297261225135e-01
-2.312050046176120088e-01
8.106576248422414643e-02
-1.094879176415915756e-01
-2.692603241401437808e-01
-1.482721500333621378e-01
-1.889107928721656116e-01
-7.326957248099111308e-02
-8.988662032517298617e-02
5.288591556679177880e-02
2.229135038290490090e-01
1.085066861136677052e-01
1.262113279006738253e-01
1.063223681616320138e-01
1.735124980865270228e-01
2.071347663821702378e-01
3.782291634638451638e-01
2.187594418797374207e-01
4.709992463097030235e-01
3.286470534130320198e-01
1.473146007423624115e-01
4.394047193515983052e-01
3.558664958797570499e-01
3.413550400246703753e-01
4.910220081916529811e-01
3.462792251699287616e-01
4.243093508340830544e-01
3.138235612200972469e-01
5.430191187535649000e-01
4.078071146198368191e-01
5.372626478299569186e-01
5.506267330693723761e-01
5.139818377003581018e-01
6.858578709568792231e-01
5.363379842376917450e-01
4.995881601472509370e-01
4.974149694274283551e-01
6.034484433157063510e-01
4.654547335654369289e-01
4.381962158352543102e-01
4.201813159162114952e-01
6.245959075659616166e-01
6.591992801438851801e-01
3.687337780769830431e-01
4.988773996462598781e-01
4.032140072736145053e-01
4.767644644517149422e-01
4.785692159755094988e-01
2.814006442353258475e-01
1.925273500713199915e-01
2.753928540644950407e-01
3.165010808534871600e-01
1.333905584075260886e-01
3.873050984323541668e-01
2.322730831931699991e-01
2.288610522157619453e-01
3.793873569831918147e-02
3.877655471018559563e-02
4.711448778114701863e-02
3.154381239209490262e-02
8.319293701467783686e-02
-2.145541128986978019e-01
4.605289132886103420e-03
-1.202695753282384539e-02
-8.588502413637139066e-02
-5.114753093421264829e-02
-1.779620682461812153e-01
-2.786567666034368562e-01
2.009557904950309837e-02
-2.594734718871857249e-01
-1.289191469392507172e-01
-3.871429065573159245e-01
-3.586081451867995096e-01
-5.625355735659152145e-01
-4.204219157970269238e-01
-3.705528464431183666e-01
-4.767496670254777191e-01
-4.833344683098448336e-01
-4.485624506605754291e-01
-3.627887785790336883e-01
-3.940280423570807211e-01
-3.702419281093500825e-01
-5.929367081991827604e-01
-3.321944342834428632e-01
-5.637116799334559447e-01
-5.798038580523667829e-01
-4.159857598961549940e-01
-5.502230251149562434e-01
-5.056287315794111281e-01
-4.747854751355620739e-01
-5.500407293671305542e-01
-5.550772478929304476e-01
-5.158505217310888069e-01
-5.032629084142511422e-01
-5.944134720537250782e-01
-3.685573988214829178e-01
-2.756289890863776737e-01
-1.924621087574333311e-01
-4.773747102584863233e-01
-4.085928110898473520e-01
-3.271877565535110111e-01
-3.709134167492162959e-01
-3.705955402154624267e-01
-4.233512599324662506e-01
-1.012035022436883203e-01
-2.552625984704463002e-01
-4.074650217938927677e-01
-2.064213524522492405e-01
-2.420220598448288019e-01
-1.235688377587193798e-01
1.902694730242641685e-01
6.479864265930837530e-02
2.142557644558610030e-01
-5.562390250786074242e-02
1.538049556256148587e-01
1.019352860715300041e-01
-6.022208002862665388e-02
1.139063585366086734e-01
1.960712196845652566e-01
2.062470338189743846e-01
1.117095738699096091e-01
3.661764523507021751e-01
4.223926957880255184e-01
3.716470166855483370e-01
3.470612398633542983e-01
2.067413070573081713e-01
2.171106285441208317e-01
3.879894740002313158e-01
5.549829887969052189e-01
3.969610271370210275e-01
5.156004392493522825e-01
4.329181447331240662e-01
6.360297560692261820e-01
4.578981224082859236e-01
4.134853916714772981e-01
4.869695886131552021e-01
4.103115266710957165e-01
6.889829780773515377e-01
5.548704931659629302e-01
4.978533993951680392e-01
8.141886809269589520e-01
4.710178573865191343e-01
4.947965618597962023e-01
3.485634659986797113e-01
4.784272145699244305e-01
4.852166557991887674e-01
2.526673252803597891e-01
3.083737893775655436e-01
3.293250929922465486e-01
3.470013080393886673e-01
2.544097181356337889e-01
3.155846809035197098e-01
4.033547784623617849e-01
4.776417183598681282e-01
1.681160819983257282e-01
2.164790533805923123e-01
2.061802679849565889e-01
2.780975547030603012e-01
8.911939370202956456e-02
2.108693713342169596e-01
7.733085360432853661e-02
2.715372438889021578e-02
3.932192570206612114e-02
6.845111133588363539e-02
-1.100756775969656959e-01
1.647869665566650543e-01
-3.589340372065534523e-03
-2.340917021229224626e-03
-1.846407743721207861e-01
-1.707855036277999838e-02
-1.173974975322861769e-01
-1.546105117155294473e-01
-2.636639693859151867e-01
-1.788885592915558931e-01
-3.610346298390571529e-01
-5.858364589555380419e-01
-3.376883682832320654e-01
-2.467403904515017565e-01
-3.620530727810458149e-01
-2.210447200244152199e-01
-2.510869286945248691e-01
-6.026057895256056174e-01
-2.956341867337418661e-01
-3.907017910006417294e-01
-5.404174299546844473e-01
-5.162286470001306027e-01
-5.265226469384782781e-01
-4.514843932860446718e-01
-5.664646393105490230e-01
-3.965363489569788680e-01
-3.785329873173691739e-01
-4.499910358307509517e-01
-5.565670760650782700e-01
-4.975209053899371514e-01
-6.200741098049555866e-01
-4.338299963003197646e-01
-4.075443785041888978e-01
-4.241721986765328856e-01
-3.520422533665175102e-01
-3.823721981252156121e-01
-4.537025756189334569e-01
-4.372173639545099966e-01
-4.015800111700832398e-01
-1.428905456895652737e-01
-3.738443987420750902e-01
-1.747503748507775179e-01
-4.195106972171939175e-01
-2.873392812067518953e-01
-3.288582710734925252e-01
-1.619610873327820832e-01
-2.704447786987412838e-01
-1.636181667482360935e-01
-7.944485767202792703e-02
-9.571557183687062764e-02
2.817112880493780058e-02
-2.558369356005724127e-01
8.758996445546925191e-02
-1.953182922341031025e-01
3.081589093880214569e-02
8.684503463655329769e-02
-3.837557048910679447e-02
1.407829214039133525e-01
1.887091669962628060e-01
3.368616450893190950e-01
1.923892242063092173e-01
2.308868242941080340e-01
3.209392713044834089e-01
2.699698413902910654e-01
3.658800363166210268e-01
4.861479874633488629e-01
5.011437234244005001e-01
3.651972542829380330e-01
2.160403728180289029e-01
4.144939008642686273e-01
4.817392860810874033e-01
7.433271128167626696e-01
3.754335554801572217e-01
5.109777446462764328e-01
5.691393887801655671e-01
4.479656936505336806e-01
5.185057176708738336e-01
4.901723078646689769e-01
4.513242170134849629e-01
4.661360820422761342e-01
5.816599980751613330e-01
5.406905555328217483e-01
4.995638691591330338e-01
4.748630782773674008e-01
3.731741699688492786e-01
3.696252196177305938e-01
4.707745823926564599e-01
2.773363733125453479e-01
2.962678092871959823e-01
5.129634098113018403e-01
3.075187813808894499e-01
2.255702752765487429e-01
4.177787920273396960e-01
3.345437598314321970e-01
3.709166163661616888e-01
4.213126204139694408e-01
3.214593020129917766e-01
1.972015023238958276e-01
-5.681328329580245806e-02
5.088053633093460315e-02
1.233631470266723928e-01
8.923795078877949649e-02
8.500084471753263649e-02
-1.409605865202541997e-01
-4.078164042565748243e-02
1.145610949319489091e-01
5.831181541604217589e-03
-1.772465160154573227e-01
-1.472209154765468098e-01
-4.202823131637267728e-02
-2.945563221760278960e-01
-1.099270107878959069e-01
-2.577969812285078044e-01
-2.062015778941768129e-01
-4.616451923758394527e-01
-3.450958872652188925e-01
-3.109183573452483640e-01
-3.566201310511187272e-01
-3.672682349664466717e-01
-3.472528510294323745e-01
-4.218524984409913747e-01
-4.782873526467331105e-01
-3.394797062835125390e-01
-5.682984413219857034e-01
-5.259716605190544181e-01
-5.327405666197554401e-01
-3.736725415124122485e-01
-4.412420154376615611e-01
-5.485492825538170747e-01
-5.895868400655273067e-01
-6.372051593708083495e-01
-4.603734202801296194e-01
-4.611929651399554464e-01
-2.757707420650091779e-01
-3.952871321184565634e-01
-5.389259369529909582e-01
-4.321222662371375645e-01
-2.974730233542239866e-01
-2.728300731427685255e-01
-3.277413260405664386e-01
-5.788284040743465475e-01
-4.157052156369971385e-01
-2.353241332615646220e-01
-5.336526987131643418e-01
-1.154624456068125415e-01
-3.638026238521312461e-01
-3.277130721204662978e-01
-2.893198364625840791e-01
-1.137840459597798115e-01
-2.875784827959245726e-01
-6.653598034070479228e-02
-1.563229583354160956e-01
-1.521416748941641361e-01
8.923511540844236700e-02
-1.391137675083334579e-01
-2.716389022720562541e-02
-1.833414845394956347e-02
-1.181260565822784825e-01
3.451316390695414321e-02
1.080089341400175262e-01
9.443493507321207292e-02
-3.403832105330784064e-02
1.840443205787681835e-01
1.767354029559143613e-01
5.422568351070622406e-02
1.953033939258109752e-01
1.787092191828273946e-01
3.134554561538590578e-01
1.801588159048747861e-01
3.470276589142722301e-01
3.915556836762816850e-01
3.033267412311707045e-01
3.538027161553616295e-01
3.848280680812830035e-01
5.746534067890188835e-01
5.978138017752631095e-01
3.569477710453692332e-01
4.630015924528557147e-01
5.557828310229560032e-01
5.360408300389716274e-01
6.298836966123674275e-01
5.304850287572644429e-01
4.426771214168889745e-01
6.462220514898162627e-01
3.025507523645240004e-01
5.281457377971223721e-01
4.903531534787132773e-01
4.893715243826002315e-01
5.595605641906800098e-01
5.462187194567743598e-01
5.899016564893412307e-01
2.934198337493995057e-01
4.324855854517015152e-01
2.594148095017109745e-01
3.874917779711853361e-01
2.842758048560320439e-01
3.812960615415086907e-01
3.600830915482051697e-01
4.484522391973639888e-01
4.018987946437014847e-01
3.192660858389128054e-01
3.429824009785616967e-01
1.908168765607196893e-01
1.234854592618837149e-01
1.663479295190619656e-01
9.678265273800595869e-02
1.313697732171208721e-01
8.023046249080312275e-02
-7.182178714112701090e-02
-1.314231702109582844e-01
-3.198107102135673563e-02
-1.942667133127903845e-01
-2.777707087019151144e-01
-1.150191569340674319e-01
-3.062817690043735386e-01
-3.581324448896515134e-01
-2.911576652072425664e-01
-2.607879352556280450e-01
-2.094719481919321558e-01
-3.092864606146973339e-01
-3.888188192107182584e-01
-3.034348554468164205e-01
-3.649387634859212470e-01
-4.775511916772006149e-01
-5.038535410801592285e-01
-4.352743166875476799e-01
-4.154996102834676575e-01
-4.225229594852464299e-01
-4.397842835220222568e-01
-4.840723357183357445e-01
-5.103427459033101909e-01
-4.381899804614926008e-01
-5.053231756779399397e-01
-2.199801535837975219e-01
-5.270304463340040879e-01
-5.708941818517787592e-01
-4.528645936667678451e-01
-8.055713109831375007e-01
-4.578827760677279257e-01
-5.588316095931029626e-01
-6.042661258175585637e-01
-3.457991539863168873e-01
-6.391310225796255073e-01
-3.737398391598584224e-01
-3.197236307259434529e-01
-3.682434442372439221e-01
-3.725511544211737580e-01
-2.343849758992528898e-01
-3.480283258893636100e-01
-2.842270940509782351e-01
-3.309745615063053314e-01
-1.973104650072827204e-01
-3.992280425241169217e-01
-1.492053091707960522e-01
-7.344039550101504055e-02
-4.372514568019165715e-01
-1.505978443391269017e-01
-9.583116206749764387e-02
-1.436855185191425743e-01
-1.254413083526611239e-01
8.193044591853888836e-02
-7.176658943477280672e-02
2.274008397124202552e-03
1.379415895862212693e-03
2.140072694324255120e-01
1.180392631961124095e-01
2.138217002608231720e-01
2.612683815725557190e-01
3.500937081196753287e-01
1.595455625652976439e-01
1.722272243366131939e-01
5.100657120883035356e-01
4.294679216578242142e-01
3.436846212386591715e-01
4.769240133077767840e-01
4.132107336299599143e-01
4.113155059217690201e-01
4.754399433837561695e-01
3.297111989235378404e-01
4.014435317648522572e-01
5.820175921373357264e-01
6.199447592406823748e-01
3.270557669764699860e-01
5.371055636753532259e-01
4.241738657278415481e-01
4.467549826616821207e-01
5.941683520565567145e-01
6.029654987116941367e-01
6.920644846837508135e-01
3.844473737564213511e-01
6.529352924582911832e-01
8.037366348328426335e-01
4.524997670908555980e-01
2.840331399067387297e-01
3.422947094204696894e-01
4.710317994241693396e-01
4.296872642471715187e-01
2.783072608904049172e-01
5.474836842623724831e-01
3.837657591747669072e-01
4.176341448383563693e-01
4.769193023282521926e-01
3.231705435408790406e-01
2.487237700175753130e-01
2.464756232521512491e-01
3.323080469164248485e-01
2.950596663338437842e-01
2.687364976657017346e-01
1.593513277117503679e-01
1.158847606100177341e-01
3.749664070142114114e-02
-5.286904774387549133e-02
-1.944814742763943671e-01
-8.389398225692511202e-02
-2.929286873621662901e-02
-5.154476017516540498e-02
2.647905218954933748e-02
1.270859658263565062e-02
-1.923197512432887613e-01
-2.217782597506389730e-01
-3.437997818138924799e-01
-2.686073712849622042e-01
-2.169291365810346872e-01
-2.477006866255615503e-01
-3.359739407518073095e-01
-4.057786259458170952e-01
-4.200748025016686760e-01
-2.928800495417129279e-01
-5.473999646719284184e-01
-3.684425619655672390e-01
-6.629133660919102056e-01
-4.932078512734068831e-01
-4.034723653943423916e-01
-4.990337584339085697e-01
-3.796542791811163831e-01
-4.621848956587211177e-01
-6.807676345836946030e-01
-5.920649600579096505e-01
-4.158808401825953016e-01
-5.041880165538548120e-01
-5.408318216682105328e-01
-4.614972950744471447e-01
-5.676797174517882461e-01
-5.676122735640418693e-01
-4.503994828085889357e-01
-4.193339786745030051e-01
-3.249701820303915745e-01
-5.106304924585999272e-01
-2.900548343601589973e-01
-4.458091023888095528e-01
-3.328643624566197667e-01
-3.131775740052796797e-01
-2.788633672830923005e-01
-2.626119966088897306e-01
-2.770233314390105894e-01
-1.983448331616324833e-01
-1.638713868707051824e-01
-3.066939470858993655e-01
-2.016365902827456091e-01
-1.418900627117830882e-01
-1.213404324582553345e-01
-1.157329350393681983e-01
-1.252547300270613062e-01
-3.747184724904346204e-02
-1.422506207643505771e-01
1.409769194838869644e-01
1.214537795616356386e-01
1.684477381675338059e-01
-3.969804044154046085e-02
1.599243226965044173e-01
1.867003876171273724e-01
2.399063980494245962e-01
8.112864147080139920e-02
3.264482487447831760e-01
2.797453468476797100e-01
2.100591466146104480e-01
2.175396549028092708e-01
3.239662901316190391e-01
3.205501186775859268e-01
6.114617852775213747e-01
3.215121573203672534e-01
4.438273844325336115e-01
5.013167582565286606e-01
4.495863827367385102e-01
4.471747734724838552e-01
5.958692093114800192e-01
4.595628041233345007e-01
4.343612395718681185e-01
4.928586909496818214e-01
5.596243137020392444e-01
4.970167268139168426e-01
7.052584684939634529e-01
4.663767054979163218e-01
4.309329304387186088e-01
4.005343182630765608e-01
3.658051536663207703e-01
5.598905055347673798e-01
4.008948921484425387e-01
4.386224900534368421e-01
4.569880780726950920e-01
4.755469197188428310e-01
3.574352855268337903e-01
2.217978273182694415e-01
2.206799431645488363e-01
2.057316522899377553e-01
4.590401632521074471e-01
1.985720405311709458e-01
1.207782987226417304e-01
3.080836963526375483e-01
2.760380934762713956e-01
2.428498676691425995e-01
1.378621175125685772e-01
7.626468593317071998e-02
7.468836004685888708e-02
1.544243203565441314e-01
1.077526082534427387e-02
-5.652897746611959540e-02
-8.337943208953774166e-02
5.997035220743993783e-02
-6.070223512327347498e-02
-2.765797383595630099e-01
-3.006180056475323825e-01
-7.556856054275856716e-02
-1.329591581599967598e-01
-9.771070274861190508e-02
-3.337883054757135315e-01
-2.027825595655508573e-01
-3.531146238551902683e-01
-2.002693858984255781e-01
-3.409759625780952597e-01
-3.311851490958621080e-01
-2.863380604095897564e-01
-3.943766708447336011e-01
-2.879812908668301641e-01
-5.291602748309013338e-01
-4.723406035194865349e-01
-4.453354494364050731e-01
-5.799401256241345504e-01
-5.155895619947481467e-01
-5.405651704774299127e-01
-7.098878939802361066e-01
-3.944903689990422735e-01
-5.679329171947862243e-01
-5.168713748220997717e-01
-4.269750274761859865e-01
-5.013644210398627843e-01
-2.492443882115009668e-01
-4.218853352360488751e-01
-2.825347408281231321e-01
-4.472132540811182277e-01
-5.082779207413294920e-01
-2.991539972941879011e-01
-4.209783975575711601e-01
-3.990606476548721471e-01
-5.353415906962222248e-01
-3.139538265023153474e-01
-3.732398691024630399e-01
-3.979456318679691074e-01
-4.535350177453282283e-01
-3.570256884236016059e-01
-1.533277502738507603e-01
-2.831377749752917450e-01
-2.615984841306748798e-01
-1.949882223759543953e-01
2.572662558562396895e-02
-2.423991365573276990e-01
1.063914348287563899e-01
-2.744073866300837314e-02
-8.154889750484826949e-02
-1.471674629239224374e-01
1.080743142914539906e-01
1.154749731336183194e-01
1.905922703445498689e-01
1.604949839569259629e-01
-3.457353009470717775e-02
1.412308057729887434e-01
3.006888720908688084e-01
8.671455895219074006e-02
2.357860378638292065e-01
2.072621714914479329e-01
4.967339883245416310e-01
1.898872971393749665e-01
2.823249736631750495e-01
3.772102940158789108e-01
5.068185637647527608e-01
3.628050527518374979e-01
5.547458560611190359e-01
5.418248874042207452e-01
4.208897952751737837e-01
4.828125762671204302e-01
5.396130593007255616e-01
4.194391179621447807e-01
3.947202948510333265e-01
4.165878621369401569e-01
3.874315821464431320e-01
4.452499774056792314e-01
6.253039975881483636e-01
5.086280285959476899e-01
4.345300534563563688e-01
3.058148162728760444e-01
4.025993095092155749e-01
3.389816572688801877e-01
4.496109151460942477e-01
3.263534994732647521e-01
4.799744422326513438e-01
2.785192524770347400e-01
3.929611758517627118e-01
3.698087612338541996e-01
4.314836097416374638e-01
2.825583324738679680e-01
3.143559244123142471e-01
4.357636240436210118e-01
3.301341368839399437e-01
1.152260070738460457e-01
2.541596914416650588e-01
2.842311927019017803e-01
6.215472951370207277e-02
1.442740473718559235e-01
1.457189998973719147e-01
1.549668852987982071e-01
2.072947730616257062e-02
-1.482247283096496115e-01
-1.054808277881325376e-02
1.432712500568844860e-01
-1.997327428731622834e-01
-1.347660439237328145e-01
-8.731935675317974155e-02
-1.880801707502615383e-01
-2.032893109151384936e-01
-3.762012754118065905e-01
-1.793107259868944314e-01
-2.422897450458128543e-01
-2.838416644622518969e-01
-4.250240202928566302e-01
-3.397647766252406831e-01
-2.805790902413530796e-01
-3.823061659276494328e-01
-4.647958965893107530e-01
-4.464472563212391609e-01
-5.057789514783257445e-01
-3.282974055513658840e-01
-5.218129850133003123e-01
-5.209808798210988634e-01
-7.356632922622359239e-01
-5.699020935269820676e-01
-6.521227055305567344e-01
-4.763117269589648983e-01
-4.597451032909183333e-01
-5.432220076562337407e-01
-5.022693700684257578e-01
-5.154119870521187696e-01
-5.365818568560294377e-01
-5.245563261457710791e-01
-4.412608722157572716e-01
-1.799849864899317198e-01
-4.435659243198614154e-01
-3.077871866646827992e-01
-3.025768191356972836e-01
-3.728353713241573386e-01
-3.392567451093841391e-01
-3.970223522474152777e-01
-2.032079789574976758e-01
-4.039951744104104403e-01
-2.775878589604619529e-01
-4.288719152135408441e-01
-3.655288057414102787e-01
-6.499821876200051474e-02
-2.648505722991253974e-01
2.319889217390819214e-03
-2.098475740318992422e-01
-4.780158548948305886e-02
-5.264375858208898695e-02
7.888957317792114066e-02
-1.576494541831837126e-01
-3.999336922300422703e-04
-8.133802932372646843e-02
1.149697692493931028e-01
1.273943998979828462e-01
1.852966066837606618e-01
2.069898606666993324e-01
3.173275362481995376e-01
2.415527773209325268e-01
3.871956574657405281e-01
3.069244977340644387e-01
1.074688038266449208e-01
3.109396997135024932e-01
5.272982547734738068e-01
4.724946828197142956e-01
3.972386088547581462e-01
3.648410833135095066e-01
5.325345516548035674e-01
3.063123747371794270e-01
4.253055539593156298e-01
5.577340654750738702e-01
4.036153941643028098e-01
5.061239883243587867e-01
6.365560485029726490e-01
3.424688575297295534e-01
2.909347070215342335e-01
4.701763559409714577e-01
3.152151929540955022e-01
4.739211109220159424e-01
3.837464273594785591e-01
4.891606847349067033e-01
4.156715555437147103e-01
4.187165136205792670e-01
5.272814772224863056e-01
3.000657611222169452e-01
4.063722137448468330e-01
4.861462481638599287e-01
1.887982756004974172e-01
4.032411103654841011e-01
4.836410685670256004e-01
2.655758807656140030e-01
2.551075784108502997e-01
2.231719517527251950e-01
1.358540951878095537e-01
1.890746180775416951e-01
9.733853033832091939e-02
1.613005482780381916e-01
1.766212073566656160e-01
1.311083794044287099e-01
2.584099532683454825e-01
1.500944016244656065e-01
9.617506032439145092e-02
-2.665471511233624344e-02
-1.719901314234853484e-02
-4.876383554346734595e-02
-2.085698150511861027e-01
-8.832072674975575965e-02
-1.487627619801990819e-01
-2.553244352963187636e-01
-1.929471078683718532e-01
-3.435166485517452406e-01
-3.338275187273445077e-01
-3.810211212499224342e-01
-3.324038983229835598e-01
-4.224332739345848520e-01
-4.708855979732044506e-01
-4.648502757734760404e-01
-4.707529075635572546e-01
-1.651629382039930816e-01
-5.338816080722912361e-01
-4.633779749426857331e-01
-4.863525835371381167e-01
-5.499057657527594012e-01
-6.983708915113362448e-01
-5.504695576712176353e-01
-4.272738723812186112e-01
-4.877632895530375490e-01
-5.428604311100557744e-01
-6.497458154584649925e-01
-3.580845216081043336e-01
-6.606548638953179120e-01
-4.252349963714819880e-01
-4.402468571789984741e-01
-5.805392970890330684e-01
-4.825535798382484809e-01
-3.306956622129008094e-01
-3.703649473834773054e-01
-4.342452590428472203e-01
-4.212044129650773239e-01
-5.924218155521733253e-01
-3.113352992610026182e-01
-3.115742190300390124e-01
-3.744720277443034373e-01
-3.990752677255602898e-01
-2.926239151189875543e-01
-2.452596660418745467e-01
-2.180629330515198583e-01
-3.001697914602564632e-01
-1.564484906448441182e-01
-1.016660830228422463e-01
-3.288222326847602128e-02
-4.641041061051554006e-02
-2.870475917282015038e-02
2.020386940474065696e-03
7.586684764625709065e-02
2.190735565542436258e-01
4.530918261188074392e-02
1.361489598186367278e-01
2.313437513409667134e-01
1.395148716527752908e-01
1.262335161542692263e-01
9.596070051248481447e-02
1.029637343772487057e-01
4.920610389981134869e-01
2.793518867857556764e-01
4.552891501818731035e-01
3.767142813019594416e-01
4.604073984138961628e-01
4.187924320913434251e-01
6.507132763205044634e-01
4.296728144128565408e-01
4.309219512640740657e-01
3.152628668342003504e-01
5.431491394644232251e-01
2.111310132486029500e-01
5.897378000550628219e-01
6.409405346015425442e-01
4.225027679533372993e-01
5.435842588201482695e-01
6.417915652219496891e-01
3.681245997988139562e-01
5.172077497166145399e-01
3.569894666315663878e-01
4.577434012199912416e-01
4.294426991954707895e-01
5.682908490856289907e-01
3.791369886386048993e-01
4.471304620105447936e-01
4.598214085172097065e-01
3.550913477130583917e-01
5.035905472368769065e-01
4.461943683307548203e-01
3.277903452449533184e-01
2.387090430516835005e-01
3.356207320056831533e-01
2.005371136171970603e-01
1.649590528100312592e-01
3.040297394045273771e-01
5.836025853447748823e-02
1.157948485211229145e-01
8.017492286726174422e-02
1.533804513459459951e-01
-3.357772936986483381e-03
1.073108408258304780e-01
-1.310081346653728662e-01
1.870410769423146158e-01
-1.938721827930632302e-01
-7.894709147119807757e-02
3.149948832033650642e-02
4.864331010152520007e-02
3.343750372785557479e-02
-6.306402425214439889e-02
-1.764054455301911628e-01
-1.609757717376756603e-01
-2.932107302175013253e-02
-2.724380036938894856e-01
-3.823135545047233741e-01
-2.749937486566834122e-01
-2.081597613300203431e-01
-5.070046803154738546e-01
-3.782102255140058489e-01
-4.665593967692422961e-01
-3.179009500654813580e-01
-2.874375809795425285e-01
-5.719394240652436734e-01
-5.043412011220151925e-01
-5.946532947536380398e-01
-3.446471222130081946e-01
-4.369720368302877911e-01
-4.736787872188222837e-01
-3.973423393832360984e-01
-3.046826667865878413e-01
-4.156932842935148753e-01
-5.629246960940028632e-01
-4.961267010183659787e-01
-6.008317158914604494e-01
-6.104571030127182718e-01
-5.714288012958197438e-01
-5.392664147555752407e-01
-4.423699270364457869e-01
-5.744450909440299569e-01
-4.794259071752928758e-01
-4.996014551891690969e-01
-4.415173093894168566e-01
-4.224858238770451968e-01
-2.842654109529654249e-01
-2.621370913264050029e-01
-2.637360000464561427e-01
-3.340094587161159811e-01
-2.749827943528037055e-01
-2.274945231739445850e-01
-2.641037046631671270e-01
-2.089216229366857303e-01
-2.365441323228356374e-01
-2.422586022469350453e-01
2.224005682787328353e-01
8.539506482088139727e-02
7.657060160436296448e-02
1.023879499710249469e-01
2.382111580010453922e-01
1.745363124928611953e-01
2.332439950650935234e-01
1.847339576079249923e-01
2.219731631473485789e-02
2.847563130402885334e-01
1.964520518849370567e-01
2.820699449769718536e-01
2.311614959962000615e-01
1.443341203915920745e-01
3.694287861820529373e-01
2.530913500278221817e-01
3.147011633776508055e-01
1.741678713161156633e-01
4.345607081023251661e-01
3.480259172224592357e-01
3.295021673532007034e-01
2.262194743724440238e-01
4.198204576501837204e-01
3.929946588371499572e-01
4.712078791161885549e-01
4.480636389681756926e-01
5.839556942338983703e-01
4.759827415066474332e-01
4.972895474355347178e-01
5.828585861253154921e-01
4.416721603532116625e-01
4.872534395259100481e-01
3.722893434039578064e-01
5.274213557607871916e-01
5.421523493210095301e-01
4.823666981327122127e-01
4.635123279470231283e-01
4.621071095448512356e-01
3.625053604143850805e-01
2.963777223813633399e-01
3.418073686789785959e-01
2.280067327775279762e-01
4.937468753107745467e-01
2.253244847275089335e-01
1.383363086295320565e-01
2.339852683259363575e-01
1.860747126057350487e-01
2.069434901592160647e-01
2.087007365195298614e-01
2.475433495250471405e-01
1.231534022324747291e-01
1.857276030519478538e-01
1.001118611149029308e-01
2.133234712485811424e-01
6.507175111341979845e-02
-1.368879721437694374e-01
4.734922425491649989e-02
-3.294819844343391257e-02
-3.213685653760633282e-02
-6.386448538867385560e-02
-4.110334858375253031e-02
-2.604311976023350184e-01
-2.335781592622155067e-01
-2.731067536996859002e-01
-1.768792256359905113e-01
3.170146482481528416e-02
-2.906263789509885287e-01
-3.824560980034228952e-01
-3.408975446478021420e-01
-2.138239750367159908e-01
-4.162114374447292708e-01
-2.331256667868922272e-01
-2.419022837492783018e-01
-5.029785802065308564e-01
-5.264151298696064796e-01
-4.098373174965191379e-01
-5.498367043260276033e-01
-6.198015444098393667e-01
-5.053050599599090420e-01
-4.042139728961207101e-01
-4.806905910537887516e-01
-4.835709326209917669e-01
-6.398886753103858460e-01
-4.428616548388507046e-01
-6.106883226807365839e-01
-4.969883824122565685e-01
-3.658327056034148539e-01
-5.617543984670753110e-01
-4.947132348580117189e-01
-5.097005907025752292e-01
-4.512547736045875446e-01
-3.911338849252032346e-01
-4.963398559131087517e-01
-3.611249655430038841e-01
-3.028777058397526534e-01
-4.367087513639849039e-01
-2.291989668129239544e-01
-2.710082657595977440e-01
-2.137899850685071601e-01
-2.109616048734104798e-01
-7.711716443159857826e-02
-2.090765938784679423e-01
-2.176818459025597063e-01
2.792616531921937595e-02
-1.268784747843149097e-01
-1.796830222470261196e-01
6.145829368561592232e-02
-1.468592277431777712e-02
-2.006778075261768726e-02
1.116835421846407161e-02
-2.734415634759407299e-02
1.746556416817111879e-01
2.218845301405858450e-01
9.541676369296678284e-02
3.765193030723449352e-01
3.694869987730159400e-01
2.620580046994929746e-01
2.078674607899918259e-01
2.704019355886098097e-01
4.833972653732998004e-01
3.063781377171598819e-01
4.124942223136025543e-01
3.288727883533971164e-01
4.082627162576118462e-01
3.446154825236537045e-01
3.146667561059116602e-01
3.358736461114750771e-01
4.737039846055478565e-01
5.922595373473156233e-01
4.889486098587167984e-01
4.744482389949128409e-01
4.008376900343704197e-01
5.324313297163666414e-01
5.174175059487503558e-01
4.768563426745258127e-01
4.735732520581252269e-01
4.375018482343390747e-01
4.043370293270828197e-01
4.689898255955945450e-01
3.913730496423413197e-01
5.219793703797884765e-01
3.698488581225195526e-01
3.572364441559993109e-01
3.919688596692100235e-01
3.243876716080362210e-01
3.936384703135392127e-01
4.263237446138091191e-01
4.124451258187991076e-01
2.481732165685729963e-01
3.157318737306096246e-01
1.684540811338311461e-01
-6.809594976267735467e-03
3.092606326159641483e-01
1.914573106198619312e-01
1.644690156711286766e-01
1.707346901260208272e-01
1.173727003477596509e-01
1.019041871298272811e-01
6.528033153433465685e-02
-8.985814182403703554e-02
4.715356284518079644e-03
-1.504552484499205867e-01
-4.235880306014440377e-02
-1.758452005141268315e-01
-2.472401058819370945e-01
-3.340700033683659531e-01
-1.633387140419788608e-01
-4.586341384089562268e-02
-3.825315887063747144e-01
-2.627220398758501885e-01
-2.382795217447162550e-01
-3.709067293766575291e-01
-3.154449558580976753e-01
-3.303034973685785025e-01
-3.959250861816173139e-01
-4.671049031875246227e-01
-4.751951185483339057e-01
-2.765945350429251937e-01
-4.427495209489740735e-01
-1.974560449702400522e-01
-5.806046142264245091e-01
-4.552724967908347575e-01
-6.757949162568109847e-01
-4.996324454250700153e-01
-3.226781160760749390e-01
-5.185668597264310176e-01
-2.458130718552134497e-01
-5.376678761551043628e-01
-3.958456906059322211e-01
-5.232405493728007340e-01
-5.288193489930615998e-01
-5.531405993538237587e-01
-4.372149848529361393e-01
-7.605952001657108053e-01
-3.658055694482058584e-01
-3.897107401796818249e-01
-2.934549391674945995e-01
-3.999101419463186868e-01
-3.056719532831493891e-01
-2.665436380205093991e-01
-2.137967452557669179e-01
-3.525987489638001127e-01
-2.074513671430408823e-01
-8.267432715544528743e-02
-8.942720327562295179e-02
-1.818386007176487629e-01
-1.793366878011171117e-01
-2.792048582702663095e-01
-7.401632588689346925e-02
3.644290278014818141e-02
5.483049310311973595e-02
1.509585763997340832e-02
3.836284686051599779e-02
5.587994451540459484e-02
2.252591262050699372e-01
-6.276442762691124277e-02
2.042777337454486641e-01
3.063166127855007637e-01
2.230148353614205825e-01
3.098943135993109665e-01
4.057299164979946138e-01
2.752293792449021503e-01
3.033966284477155884e-01
1.527283968398424896e-01
3.854015578220013616e-01
5.124096158418310898e-01
5.039171902814918447e-01
4.838347924389482246e-01
3.032727438491916727e-01
3.460929510924212194e-01
5.552556095481795406e-01
4.377165946339617864e-01
1.921136413125080211e-01
6.063650513041637380e-01
3.267519116029570236e-01
4.409958365332709018e-01
5.363152535919791797e-01
5.542465322783152182e-01
4.240940484382016984e-01
6.251679902440324677e-01
4.515325009474673301e-01
5.271603934153550330e-01
5.768919334623789918e-01
5.803045836257050283e-01
3.389655361217421836e-01
3.564689286118047917e-01
2.666602492389751333e-01
4.903831529309786719e-01
4.986162296711902364e-01
3.013439290373087776e-01
3.413496182210349339e-01
2.051581992973401103e-01
4.077641428283367286e-01
4.075394285271852213e-01
1.877345664885617382e-01
1.647991967814619041e-01
2.035057066091990885e-01
9.031949294632576897e-02
1.587198674181570790e-01
1.633019240147693674e-01
1.212371823872529231e-01
2.554438561090850990e-01
2.073205418551500312e-01
8.980780905846554030e-02
5.681111742670232057e-02
-3.993791864715592194e-02
-1.721154616291447059e-01
-1.445662606963876717e-01
7.448590783726621867e-02
-3.327239280195948279e-01
8.381272249598817337e-02
-2.552458519967429895e-01
-3.469739812102086152e-01
-2.154596195812751858e-01
-4.226463219300868324e-01
-2.292448506254253782e-01
-3.776886099846517575e-01
-4.100735547231972866e-01
-5.217675441288101013e-01
-5.865190121610817098e-01
-2.873996297685136314e-01
-9.850816880335688808e-02
-6.037305858037089745e-01
-4.490657570876619431e-01
-6.580771144203780842e-01
-4.485194309896548548e-01
-6.308532827397712595e-01
-3.079847360220937524e-01
-4.007382079455656942e-01
-5.022640811764657043e-01
-4.798561612345160765e-01
-4.259166460323923209e-01
-5.067568147269202461e-01
-7.415946516719077453e-01
-4.524009488128566403e-01
-6.188951267165609949e-01
-4.671463596005097640e-01
-5.213781440819637014e-01
-1.617973677881008876e-01
-4.010406068986765993e-01
-4.904433772393135271e-01
-3.296860439393236586e-01
-4.216043672497660211e-01
-2.388591480254895760e-01
-3.900349686442383668e-01
-2.042735788648429307e-01
-3.463923540582983795e-01
-1.939697989055670646e-01
-2.976412956377882946e-01
-7.476538536323236450e-02
-1.213927420743161761e-01
-9.051242187801712691e-02
-3.199575418838016549e-01
6.296313514092576058e-02
-1.989514980999276261e-01
-1.318403857557576830e-01
-4.564781605130449615e-02
5.331421503013807073e-03
1.053257221029276908e-01
-2.008851594420163478e-02
3.784654253935898494e-02
2.434210706311926709e-01
2.443662946057704732e-01
1.847305103316856378e-01
2.901184943757854073e-01
1.662813173220221707e-01
3.252632319600592958e-01
3.888771560084803847e-01
3.542345863060307742e-01
1.281410386648429434e-01
3.857068453918895412e-01
3.842349703553367690e-01
2.845404354601559493e-01
3.918657356108320999e-01
5.170040728699618615e-01
5.243428469927469138e-01
4.484995544220397590e-01
5.410948301187876730e-01
2.113455038310184109e-01
4.370245090948357558e-01
5.720300367909991746e-01
3.793437663405682114e-01
4.354976955287361839e-01
5.632414674120281850e-01
6.036351965101864891e-01
6.170985931709359607e-01
5.023183809362111729e-01
3.161551263274051671e-01
5.240921462184789936e-01
4.252338489933780163e-01
5.616355996629367464e-01
5.525143011402147142e-01
4.527594832409904679e-01
4.328329309304954076e-01
3.317620418615077060e-01
2.288663541048915895e-01
3.875786288508439315e-01
4.314129406906390685e-01
2.461541588802694525e-01
4.239460384782433588e-01
2.375195157646235455e-01
1.007934365594710668e-01
2.824669228067935856e-01
1.329171049058894272e-01
-1.172147236602667231e-01
-2.325389239218669801e-03
-3.962587368578913971e-02
2.331775709622224135e-01
-6.971759712740903392e-02
1.458893993619865270e-01
-6.769626460748634500e-03
5.752277223918710047e-02
-1.208398950160146368e-01
-1.678102760092496926e-01
-2.706014939719836310e-01
-7.677280531676833331e-02
-2.314868689529379908e-01
-2.844172784058144887e-01
-3.556458923713883280e-01
-2.904182743193606253e-01
-3.383825738355303869e-01
-2.886040412118728304e-01
-3.910527131989689487e-01
-3.950769513219118401e-01
-6.088227092696134601e-01
-4.058113023970038591e-01
-4.842714588264905307e-01
-3.590088648142274463e-01
-3.412368543998329784e-01
-5.130613197298458106e-01
-3.270710723302695522e-01
-4.807578842507728156e-01
-5.753373381636776029e-01
-4.852785700430051752e-01
-3.693439169056031424e-01
-4.159673966529237599e-01
-5.025147899096571447e-01
-3.829863287511317549e-01
-5.063934942955642393e-01
-2.910965444454465811e-01
-5.501305089657033687e-01
-4.223222337613371513e-01
-5.257154910915888824e-01
-4.938271393057495073e-01
-3.688168085637548721e-01
-4.736793790015016437e-01
-5.427568024962219351e-01
-3.967562832389870398e-01
-3.948822870430322984e-01
-4.500998582262379921e-01
-3.313248875691456874e-01
-6.329436016760675576e-02
-2.441623009202450456e-01
-1.617698383937435369e-01
-1.315444822400419767e-01
-1.134550317093366706e-01
-9.634971838198837235e-02
3.680335191039665887e-02
-4.298456546667191180e-02
-1.413909838724167478e-01
-1.129806197344344620e-01
-8.746877162390080673e-03
6.586859389460618386e-02
1.243100476781842101e-01
2.821819898936017701e-02
3.401235161246741745e-01
1.367475712249026087e-01
2.832084709233051445e-01
3.276807144812360351e-01
2.260974348692610381e-01
4.908749355443146056e-01
3.621884963132733781e-01
3.843260923053621325e-01
4.142688774801083218e-01
4.240331643075447299e-01
4.126272520643913255e-01
3.173145569804357580e-01
3.440580749149771411e-01
5.935039982683629756e-01
5.620984591067339498e-01
5.019947835593309149e-01
3.221746454773647961e-01
4.373495143848024624e-01
5.395351955883411765e-01
3.818971583787280633e-01
7.412324622168734445e-01
6.234894767151940576e-01
4.328543517440485711e-01
3.920530672644546022e-01
3.486704349483915055e-01
5.774490203332305338e-01
4.536359377643615076e-01
4.157798395436215211e-01
4.410311371686882476e-01
7.177025939448113956e-01
5.563916963352102396e-01
4.591787921394166472e-01
5.027344716426497273e-01
4.301038783368989482e-01
3.113039470271896647e-01
1.963733530818055628e-01
3.742954801159669720e-01
2.271473371708361277e-01
2.417930187180093726e-01
2.249837960612972032e-01
1.377057295702141526e-01
1.056818632374092598e-01
3.997540509215677385e-02
1.187141767836484424e-01
-4.279129838085221627e-02
8.632784380903561761e-02
-3.598399325924418052e-02
-6.149722739414184222e-03
4.212459501462588463e-02
-1.354984687714343994e-01
-5.703350010551160032e-02
-2.802185203258373836e-01
-1.376052069078366746e-01
-1.830968530301198549e-01
-6.952013691119024452e-02
-2.935856246332063657e-01
-3.114785402197378095e-01
-3.823581479247754045e-01
-3.064885931604022784e-01
-3.823211890803158708e-01
-2.829645951026718564e-01
-5.913495189998732027e-01
-3.511042284625175980e-01
-6.211343572946409486e-01
-3.122008089303418554e-01
-2.715179924309826243e-01
-5.908028710817982976e-01
-4.757009603043674262e-01
-3.278755548085008908e-01
-5.328521560399042123e-01
-5.612983072184383193e-01
-4.915118192934015973e-01
-5.491559226562404694e-01
-3.813322255765633773e-01
-3.812656183276112443e-01
-4.896876691159919859e-01
-4.955835432729416290e-01
-5.275433557950401919e-01
-6.431418895433802518e-01
-4.365995803167664335e-01
-4.531108466984143934e-01
-4.945644900162269320e-01
-3.443883605615834509e-01
-3.990975266535531918e-01
-2.862737165287887464e-01
-4.039251081463618442e-01
-4.219720064659323588e-01
-4.146512844633181705e-01
-3.110338745787423753e-01
-3.846806783287585185e-01
-2.101980296868451725e-01
-1.849106668599761194e-01
-1.815718925188408717e-01
-1.923732352680422308e-01
-1.757208195646126903e-01
-2.705221438583150229e-01
-1.565089073931163477e-01
7.288774327669417241e-02
-1.589411148125501327e-01
-5.266962178683337603e-02
9.956594432885541857e-02
6.959382424144129609e-03
1.446334141661204109e-02
2.199808529076569541e-01
1.242059352032815894e-01
8.254341424204322819e-02
1.280434753350235544e-01
2.497374654004829164e-01
2.184231999750200492e-01
3.512807754033883123e-01
4.798580818290024697e-01
2.658874455809271398e-01
2.727775934868431063e-01
3.051040905262115688e-01
3.905131828515320258e-01
3.195741045544874814e-01
3.288977000693163455e-01
3.841571936809249355e-01
4.189553533430721011e-01
4.757108664935596476e-01
5.634917880920302657e-01
6.543135789001571778e-01
5.336323148717017073e-01
4.022195296867866476e-01
4.967272991094688894e-01
6.013379350628356157e-01
3.525452063084533183e-01
4.895562531471543410e-01
5.035403015638578728e-01
5.622885812896739610e-01
4.272165159412999458e-01
4.265503592069264105e-01
4.996294203838989034e-01
4.861170098690995589e-01
3.461943531688283504e-01
5.239508441399061134e-01
3.319003727624508793e-01
3.315465409781245820e-01
2.791468093373042358e-01
2.804931170891103998e-01
3.303091399199396538e-01
1.451558007839926778e-01
1.882286192224480736e-01
3.325631017907507703e-01
1.451770613455398151e-01
8.449756065333990929e-03
1.704721614444082434e-02
1.063834811892741955e-01
1.090942926626981280e-01
4.896238713135301485e-02
1.056276930653264612e-01
6.218338180579764674e-02
-7.710946777335395130e-02
-1.735608756549512355e-01
8.249270197629082757e-03
-2.217031982373953714e-01
-6.911503571505417387e-02
-2.532083530354183321e-01
-1.020882663904272847e-01
-7.536715191181889151e-02
-3.353185773782726420e-01
-2.875001917912999305e-01
-4.131505765139163455e-01
-2.790511511679492074e-01
-3.762462398125432372e-01
-2.684149518039933291e-01
-2.415498293626016646e-01
-2.337961822934484513e-01
-5.112475980438642154e-01
-4.466420210305422356e-01
-5.196584449496834957e-01
-3.232615834051731363e-01
-3.792355204477104724e-01
-4.717927730934447506e-01
-4.707945663799603109e-01
-6.212708392934795931e-01
-5.824003024504595949e-01
-5.685022020099511630e-01
-4.907203306811925847e-01
-5.508437053132181349e-01
-3.817429142395470376e-01
-6.383955114195335456e-01
-5.666601060515128463e-01
-1.431615665129456483e-01
-4.310842094824420823e-01
-4.066194463023389827e-01
-3.112881525542451899e-01
-5.216685339867718207e-01
-2.440204145380346912e-01
-3.711996801154079373e-01
-3.505057762929978393e-01
-1.589839009164262240e-01
-4.550294315958909319e-01
-1.951489657835547842e-01
-2.294582372486465849e-01
-2.064195354172698449e-01
-2.317955455635643258e-01
-8.273797705948807146e-02
-3.162592077512035305e-01
-7.050598680697039988e-02
7.537459422656092589e-02
7.968437290593488598e-02
-2.423940977036004307e-02
-1.121624812577881464e-01
-3.838941646402527219e-02
9.124558919537602286e-02
4.724354339227784805e-02
1.165285637765595822e-01
3.242950812244645153e-02
1.685836413411636037e-01
1.791978772392706365e-01
1.420460452972063803e-01
2.487737297203483910e-01
1.497029928068212556e-01
3.242414477725480415e-01
3.892413231623994552e-01
2.805542142103838454e-01
3.649556188050996353e-01
4.655965284430920170e-01
4.142325315433366684e-01
4.965216853065257396e-01
4.508194979323124074e-01
4.033781505851909976e-01
4.893428507694970175e-01
3.719801221828290538e-01
4.710295458921885947e-01
4.482811321725514997e-01
4.668348109887498487e-01
5.057319222708580586e-01
6.270840280975860104e-01
5.829659527216854986e-01
6.225318487320056215e-01
5.993135806545626387e-01
4.413032980159293794e-01
3.133286749652964276e-01
4.604130053658128663e-01
4.201819016303772192e-01
3.068219954721875808e-01
3.393874467174821663e-01
1.589645175552985568e-01
4.342672862565027381e-01
3.455211718692993150e-01
2.239418963104557736e-01
2.730778062282682161e-01
1.950822382443167802e-01
1.609940038470119850e-01
3.977255266638786146e-01
2.654978399635827824e-01
1.816549426966966307e-01
8.350581846365578986e-02
2.211195326878304390e-01
1.651225240099403746e-01
1.925172160613712879e-01
3.937714259888987212e-03
6.701269358207251337e-02
-4.833641801610570610e-02
-2.106649663333516956e-02
-1.496013597992830180e-01
3.418528769930122280e-02
-7.233320344848120920e-02
-1.701169960390902791e-01
2.875727722662721475e-02
-1.205964842433965428e-01
-2.471255788714412649e-01
-4.961876149031433370e-01
-3.543787916686961803e-01
-2.206710374486642312e-01
-3.112153092132945997e-01
-4.467948196928142046e-01
-4.417810319295344956e-01
-5.727668501318869954e-01
-3.850435055288222719e-01
-4.400102904510796997e-01
-4.160451165784792016e-01
-6.041483096568571742e-01
-5.076413220731306186e-01
-4.222641919493771434e-01
-6.944325032553739785e-01
-4.192967675424691398e-01
-4.698012092768465986e-01
-6.411103381800937751e-01
-7.622326349476342688e-01
-5.043873319975099578e-01
-4.815577498736090534e-01
-6.838900019006368680e-01
-4.547992359346794689e-01
-6.648947097298696374e-01
-4.069328840613508635e-01
-3.593886771318511864e-01
-4.686238219360184254e-01
-3.110327466777217942e-01
-4.265836138317252724e-01
-4.987328344307061512e-01
-5.103359113728332952e-01
-2.448984092274311131e-01
-2.602000833967234028e-01
-3.816437406618795602e-01
-2.743076042245434776e-01
-2.394516386739440894e-01
-9.657982524301034211e-02
-1.288061136344970381e-01
-5.052176157727200634e-02
6.833237303079342517e-02
-1.012191626171460440e-01
-2.779570214750609614e-01
3.031926445078270138e-02
-2.232084324787405039e-01
-7.617911885373633563e-02
-8.005963032856010242e-02
1.295360863454451256e-02
1.871679405345282876e-01
2.570695615976800186e-01
8.854390775089718280e-02
1.128180713539034263e-02
1.877757323606848716e-01
2.555737745329755839e-01
2.962748682991587224e-01
1.651952263419420863e-01
1.763647754643400123e-01
1.444550798745165565e-01
2.639238031778795568e-01
4.812060524973527098e-01
3.959975005587866859e-01
4.493177154269788476e-01
4.026559225072698922e-01
3.663118196654233660e-01
5.447639396373230580e-01
5.118455571649572766e-01
4.403414873472817903e-01
4.825834017862723480e-01
6.051630324126464622e-01
5.338588648030773154e-01
4.201110853634643094e-01
4.726470171631277362e-01
4.152458607452960138e-01
4.301582042744839240e-01
4.991092931404882416e-01
6.623719361513490389e-01
4.159777554426290491e-01
3.869631021841468677e-01
2.879857450936903485e-01
3.866790189824173551e-01
2.566000138302505507e-01
4.911260186222329294e-01
4.557563711867078649e-01
3.548768999850700490e-01
3.173722721788048151e-01
4.877850125210415611e-01
2.865862269065052037e-01
4.009842019928110401e-01
1.905056706259904697e-01
4.271287160220740842e-01
2.332891724393953425e-01
1.868643620349319523e-01
1.052823918963171623e-01
7.867164969400916585e-03
2.025186996606963552e-01
1.963963268876187801e-02
1.931917687225941094e-03
-5.543006745199703655e-02
-5.263260810376677035e-02
-7.957735119295232529e-02
-2.163054634238246177e-01
-1.615340617406328394e-01
-2.102279039611027467e-01
-3.106556549523370458e-01
-2.295443380753333651e-01
-2.556292272634911322e-01
-2.009892231182249522e-01
-3.118053301670593025e-01
-4.182435038896912260e-01
-4.244197208852675263e-01
-3.060839688910609313e-01
-1.854112841823365165e-01
-4.731470901049335542e-01
-3.170476167414163493e-01
-2.783733590592409879e-01
-5.527922198974591916e-01
-3.080574630808561309e-01
-5.068600323127260276e-01
-5.993941692544080269e-01
-4.775640480849389635e-01
-3.448645170062750731e-01
-6.727517374503994008e-01
-6.156395739091413688e-01
-4.824924602473908974e-01
-6.074074556562925054e-01
-5.724544629218413228e-01
-3.193280276303483989e-01
-5.819868452673081505e-01
-4.450754076404700443e-01
-5.479624591683939228e-01
-4.099913079656234971e-01
-4.589003919095211992e-01
-5.259784717733062553e-01
-3.377191079394327722e-01
-4.052365863663686674e-01
-3.837665931344155235e-01
-3.247916086845814010e-01
-5.259533853607470943e-01
-2.209366475083368031e-01
-3.142365719587744133e-01
-5.945426945406258046e-01
-3.007684158658245899e-01
-2.373304783663641448e-01
-1.976052478721248284e-01
-6.279150695553678552e-02
-1.804454158898593508e-01
-4.521492894154899994e-02
1.080666544965128151e-02
-1.433203099910684286e-01
-1.235690818377905148e-01
2.280623719330119314e-01
2.785908325684496867e-01
7.416670238023906347e-03
3.418639681425786891e-01
1.754227096575069478e-01
7.665652399210386159e-02
2.836655641034607767e-01
1.801630494415862316e-01
2.353640594427025001e-01
3.436749981192251946e-01
3.115937565685296673e-01
1.899706086628933643e-01
5.180190460681346476e-01
2.590552988878284113e-01
3.693093331261257939e-01
3.981707821796631186e-01
2.566336028200982833e-01
2.643088234027686223e-01
4.315448073787920280e-01
3.106705369752467694e-01
4.354259249085709604e-01
6.348809264449627454e-01
4.700985588918588642e-01
4.842921404111760753e-01
5.934655727858023644e-01
5.133024818955472801e-01
5.170645185700961655e-01
3.501983865473796698e-01
5.614991843557980422e-01
3.730997102056103909e-01
2.734848872801366459e-01
3.612779410255000934e-01
5.021609585043759205e-01
3.959165375635612105e-01
4.634200660649673287e-01
5.531258504159624056e-01
3.910915273708029383e-01
3.755537843909892981e-01
3.033587681996869345e-01
3.509468506398996102e-01
2.528366024222128416e-01
3.766559062540193459e-01
2.407425867668581410e-01
1.286001452914100895e-01
2.087619014586202248e-01
2.883580335675406392e-01
4.745267870960995227e-03
5.316654199856030161e-02
2.649226456217214087e-01
-1.411743188182337794e-02
4.264140885034031769e-03
-5.680165218977626870e-03
1.329704342672708983e-01
-4.279548266642160814e-02
-2.776271917420186641e-02
-2.808889605992269389e-02
-1.131929257210494144e-01
-2.932016148122582044e-01
-9.353091784257333563e-03
-1.584521905476665715e-02
-2.775004542599491253e-01
-2.013005912103357775e-01
-4.123028695018225442e-01
-3.644458850789254467e-01
-3.301553509929257557e-01
-5.745599174270257237e-01
-4.427257966509309250e-01
-2.492778198422717084e-01
-4.041980609461461316e-01
-3.541261105168336254e-01
-5.411982704571338676e-01
-4.899053681234026847e-01
-3.880106162919645940e-01
-5.973159373118037685e-01
-4.728749700946640599e-01
-5.263346755532883892e-01
-5.640077509610317286e-01
-5.411679667777931080e-01
-5.234393895765003801e-01
-2.868057355210165693e-01
-5.150030618145596817e-01
-5.956099133260797096e-01
-4.037411155173731281e-01
-3.376153672675388240e-01
-2.304365015947686945e-01
-4.820619655258202574e-01
-3.759332577367735517e-01
-4.306449180965882251e-01
-4.520510645950741035e-01
-5.004853482931828079e-01
-3.234048888353907580e-01
-3.367194502552853796e-01
-3.755454612546388904e-01
-3.656284408703743272e-01
-4.298353177321859175e-02
-2.801371760168101521e-01
-3.158739077141111684e-01
-1.240747452098963366e-01
-2.447020734805425701e-01
-8.726769554917757077e-02
1.068943444586623048e-02
-3.749176969354228728e-02
-1.451604519131769466e-01
1.074928174463237046e-01
7.753438080744351479e-02
6.585439872952070228e-03
2.145955762005071488e-01
2.568881683505927493e-02
6.035593721380294596e-02
2.154832810997333592e-01
1.510882990950117577e-01
1.784838736117269065e-01
3.252065943396387770e-01
2.256562897466981576e-01
2.956966473508770843e-01
3.035864381984136329e-01
2.524027777271619088e-01
4.533119558621429568e-01
3.979855098535578506e-01
4.749539604021115746e-01
3.466177579522244367e-01
3.298987899119339984e-01
4.133556604713679028e-01
2.387207871299035777e-01
4.812840833638001858e-01
5.602823549109613444e-01
5.962090268744763000e-01
4.537708688113490929e-01
6.375132100862710427e-01
4.500802622245065332e-01
5.502746761022829780e-01
4.981926446323813318e-01
4.340444310821762741e-01
5.885966805704963001e-01
4.588304559072162725e-01
6.731992271813473927e-01
2.486485993935163286e-01
4.949726413253047741e-01
7.265426864145416719e-01
4.689228561755438007e-01
6.405965916636995328e-01
2.339656674661573510e-01
2.737431988550478312e-01
3.566302038024301013e-01
3.981413398200309706e-01
3.823357660517567869e-01
1.841243638142388284e-01
2.035213652041942267e-02
1.797026100923520275e-01
3.416466603254775247e-01
3.028595232905492152e-01
7.463846853913878865e-02
6.474423756117916873e-02
1.228953794223465873e-01
1.040645848002982876e-01
-1.556875991000540235e-02
-5.641378106924418989e-02
5.577787021569832054e-02
-1.044431591854933505e-01
-2.074304729758306154e-01
-9.797935464467291689e-02
-1.591593106392069634e-01
-1.656260222923034708e-01
-2.275792821046120074e-01
-1.374685588845305784e-01
-2.105361020084921542e-01
-4.102787001140141276e-01
-3.345340878186973121e-01
-3.148910732307963478e-01
-3.594873993997222406e-01
-5.429562420654676647e-01
-2.891945343950177438e-01
-4.397256242208839594e-01
-3.649892201700744576e-01
-5.940084327535246622e-01
-5.124941313535893439e-01
-4.884425348862222460e-01
-4.903157631311242937e-01
-5.309519266463053055e-01
-3.446393751615652867e-01
-5.047329751421999466e-01
-6.162784946003588837e-01
-5.141806357592163534e-01
-4.832555258169216050e-01
-3.461628204083158078e-01
-6.826410074950175488e-01
-5.369910475568667740e-01
-3.991465076198323358e-01
-4.149523892019177929e-01
-5.196012420125861730e-01
-3.852460830485660570e-01
-4.601880126689147921e-01
-4.557563534322731646e-01
-4.630091228562993044e-01
-2.874336958238564721e-01
-4.683187999032516480e-01
-3.438525054920476554e-01
-4.148360863831202505e-01
-2.986812910125341003e-01
-2.437682443325374648e-01
-1.659108547121250499e-01
-4.254767375369625793e-01
-1.682230350379350092e-01
-2.194391972743127417e-01
-4.781880144922021070e-03
-1.670782953026153095e-01
1.262849799334716805e-01
-6.861568694531453017e-02
3.304439956879928753e-02
5.644835657645057292e-03
7.638172874140908286e-02
6.573183464330645265e-02
5.498447329557802632e-02
3.560201604831053634e-01
2.983318226545844110e-01
2.930680710609661066e-01
8.768472884258204925e-02
2.730563643386463291e-01
1.101863784920916467e-01
3.460770279514975289e-01
3.827383217016004924e-01
1.939668549870919856e-01
5.543097383702633163e-01
3.183772507107563432e-01
4.675488311494297444e-01
3.614117911762934066e-01
6.092631948015083676e-01
4.696440059340188378e-01
4.236954003104714261e-01
5.002867341612635688e-01
5.243447602802520091e-01
4.295733547261303409e-01
4.884853969220112613e-01
5.554579028265145269e-01
8.471841597851839101e-01
5.562498439184847543e-01
3.326987470188802476e-01
5.088889466866367561e-01
4.348933080983115040e-01
5.621314534170180899e-01
5.579542313490598593e-01
2.737031650376474667e-01
5.933344024778616221e-01
3.281321795810299702e-01
3.445276153804948671e-01
4.352724594792266588e-01
1.892002799020167103e-01
4.661900331303016065e-01
2.327356357520591890e-01
2.988829973844885357e-01
2.423254758859794411e-01
3.011859511664092270e-01
2.789156631658086249e-01
3.203549714452941233e-01
7.398278803867359976e-02
1.000821825286302424e-01
7.115182396954113087e-02
5.825155122349804510e-02
5.020703259731833928e-02
2.008338288034523106e-02
5.755660887734889014e-02
4.149554918418500021e-02
-1.414694475108144167e-01
1.294786969074483707e-02
-1.386916966360200731e-01
-2.538089654613217561e-01
-3.514775096728701698e-01
-1.395966860181405422e-01
-4.300168447293272189e-01
-4.291393170247242983e-01
-2.737655692966276533e-01
-3.815926812072220620e-01
-3.405550522158402038e-01
-4.850688404243175267e-01
-2.909137036246240982e-01
-3.472694024336104857e-01
-4.876095862928301883e-01
-3.477484208426054324e-01
-2.386074884855486355e-01
-5.156367936395679363e-01
-5.137783813183306458e-01
-4.712966342375355944e-01
-4.560308293078903508e-01
-4.596826269704338275e-01
-5.384943062706718520e-01
-5.786066213146602299e-01
-4.665372416869189576e-01
-5.562793873520787136e-01
-6.597579849474382030e-01
-3.959539773317134470e-01
-4.796443134966037469e-01
-5.292679993908008251e-01
-4.018305790738286865e-01
-3.340414671566687699e-01
-2.935281494703276817e-01
-1.831542905316433101e-01
-2.502058368401185451e-01
-1.755946907763273335e-01
-4.989686793233662487e-01
-3.393346908362518954e-01
-2.594360950763459628e-01
-2.349179931486083950e-01
-2.697114984514684677e-01
-3.597396290117927387e-01
-1.730266902064111212e-01
-3.958643452029059207e-02
-7.925176979801384913e-03
-8.308579419544803724e-02
-1.273705612105315021e-01
-1.613897610359871226e-01
-6.582663241783261177e-02
-1.192679237787276775e-01
2.939897732624661281e-02
1.623352276361555990e-02
1.968450998270510066e-02
5.019569819676649586e-02
4.645057360342488839e-02
-6.023634892855661560e-02
1.288298454953540062e-01
1.149339951222006773e-01
2.632959094063659355e-01
2.514399770156784952e-01
9.126335523519685244e-02
2.549407172967150803e-01
4.689588027736885101e-01
4.085869670144047228e-01
2.998988797520945049e-01
4.485096908823140160e-01
3.164016037235313217e-01
5.946481985209257637e-01
4.032857051678256366e-01
6.200766100315262541e-01
5.047871730455961714e-01
6.043044350192883218e-01
5.294450303106214006e-01
3.725060679604378366e-01
2.829366381554554444e-01
4.796757580098562901e-01
4.074591254947073637e-01
5.111582084226936606e-01
5.135808281460408908e-01
5.172300321193843420e-01
5.430877878368938205e-01
5.430499823066381460e-01
5.800771559008186529e-01
4.675778604806046790e-01
2.828857436032429229e-01
4.433197677069787845e-01
4.035252635676044863e-01
2.614686552866797298e-01
3.862106136334050865e-01
4.058011134055218294e-01
2.421994511503924308e-01
2.920210119994152143e-01
1.743883520148300503e-01
1.773597187231295003e-01
1.503350998342952438e-01
2.398071923071288802e-01
2.066923045288584782e-01
1.604896357309556487e-01
1.450177461140447488e-01
9.993365496336553688e-02
2.677809166029925247e-01
1.236824492810829484e-01
8.529405618798953370e-02
-1.021027038212606874e-01
-1.243731912718704091e-01
-2.048317679633824551e-01
-8.140841213858104886e-02
-2.410758036759458600e-01
-2.631596970437126148e-01
-2.185757562320314595e-02
-2.377575978146780067e-01
-4.839061022666101275e-01
-3.875210980892948021e-01
-2.260224169599823751e-01
-3.050648889923985307e-01
-4.777943844896628267e-01
-4.534336058447286377e-01
-3.628879394929613311e-01
-3.839791819441127907e-01
-4.079258579542142105e-01
-5.601825921697942690e-01
-3.934264894577496063e-01
-3.403945801362003865e-01
-4.429454192611859131e-01
-4.332061220532086310e-01
-5.745081192029750650e-01
-3.861711495738617272e-01
-5.069607687284379827e-01
-2.706769277281659836e-01
-5.243749242271493749e-01
-4.351427184379626500e-01
-5.478649249521663211e-01
-6.198198744270397853e-01
-3.991368175901897630e-01
-5.575918545234371804e-01
-4.625540720774802272e-01
-5.264032876858635301e-01
-3.052490427488583347e-01
-4.158201207450555326e-01
-2.516047338883354856e-01
-3.092085403269451138e-01
-4.078147455773212249e-01
-2.752316795095641200e-01
-3.806189518667221772e-01
-3.441634797454830030e-01
-3.443042985414824786e-01
-2.966296464616865469e-01
-2.643789346174839627e-01
-1.604013743473575171e-01
-1.992137750119656880e-01
2.467149497430351501e-02
-6.784149812569101323e-02
-1.059404580183618272e-01
1.479590650694720400e-01
-3.261669472671176878e-02
1.432036871120823118e-01
5.400512460959331490e-02
2.398224847944591676e-01
2.403130297798253823e-01
1.845273515786356733e-01
3.484018165562613456e-01
1.529020571914821991e-01
3.035659850040523522e-01
2.785737988629319317e-01
3.838954149028279139e-01
3.390898261542459879e-01
4.110546209491799385e-01
3.165237623354844043e-01
3.285976578396008763e-01
4.086379260712455497e-01
3.887446937356565657e-01
5.062709187378719999e-01
5.740150358220315052e-01
4.498267212698263684e-01
5.793312867241735553e-01
5.146988263258245322e-01
5.464307442377854818e-01
4.706439009741502089e-01
4.839336250147193708e-01
5.315924032544484534e-01
4.478514610381947869e-01
6.371043550654140741e-01
5.316260572246346294e-01
3.966016960104844502e-01
3.739473989348232608e-01
5.307389112471727621e-01
4.140979437045083644e-01
3.909654074559345549e-01
5.725087505390867859e-01
4.654600505914338604e-01
3.385713045445168934e-01
2.328151513580185850e-01
4.450208057684791330e-01
2.703786707125605537e-01
3.832327637415229304e-01
1.604365586524948706e-01
2.668314335721513331e-01
3.845130285596214392e-01
3.454091413565120172e-01
1.239197524142649637e-01
8.099182650934842742e-02
6.396719701274027059e-02
8.117286770522515182e-02
2.288221097392049153e-01
6.749040477623838297e-02
-1.687227496860452605e-02
-2.029122324089022988e-01
-3.681019200848288653e-02
-3.531640833325253026e-02
3.461975670884620548e-02
-8.891123449033735970e-02
4.634528803383322626e-02
-2.017634878063974957e-01
-2.315763090720239503e-01
-3.716070659641672047e-01
-2.839989491407109434e-01
-3.468124717428282544e-01
-2.765980609912639943e-01
-4.947321414616887569e-01
-4.890818244010228799e-01
-2.797709567631788130e-01
-3.825074642870768815e-01
-3.571933354890555190e-01
-6.222514269643226736e-01
-5.883983267101366987e-01
-2.303111711630507763e-01
-3.525743248771037730e-01
-3.437671009882277140e-01
-5.302686508076334126e-01
-4.254326792003336188e-01
-5.482171506650318493e-01
-2.920949716201720614e-01
-5.792980249549221083e-01
-5.489405010326613432e-01
-4.657133593305131658e-01
-3.732615280842187522e-01
-5.623481399056768915e-01
-3.954445913891138642e-01
-5.494798446912863010e-01
-4.014994761713105986e-01
-4.172654725583707092e-01
-5.686521104441519814e-01
-4.045311374457293829e-01
-5.223530598606271891e-01
-4.039310552455747105e-01
-4.647462978335877848e-01
-2.921454122149426125e-01
-3.848551809722525752e-01
-1.568318843743224666e-01
-1.774806734224700366e-01
-2.180052119504629071e-01
-4.829276519660807843e-02
-1.199082878291660437e-01
-2.635749556658172343e-01
-4.074939575674286774e-01
-7.235769231164757009e-05
1.175358563137905016e-02
5.568452748240826367e-02
9.920656926268546158e-03
